# v / cm^-1, IR Int./ AU, Raman Int. / AU
 -100.00  0.000 
  -99.00  0.000 
  -98.00  0.000 
  -97.00  0.000 
  -96.00  0.000 
  -95.00  0.000 
  -94.00  0.000 
  -93.00  0.000 
  -92.00  0.000 
  -91.00  0.000 
  -90.00  0.000 
  -89.00  0.000 
  -88.00  0.000 
  -87.00  0.000 
  -86.00  0.000 
  -85.00  0.000 
  -84.00  0.000 
  -83.00  0.000 
  -82.00  0.000 
  -81.00  0.000 
  -80.00  0.000 
  -79.00  0.000 
  -78.00  0.000 
  -77.00  0.000 
  -76.00  0.000 
  -75.00  0.001 
  -74.00  0.001 
  -73.00  0.001 
  -72.00  0.001 
  -71.00  0.001 
  -70.00  0.001 
  -69.00  0.001 
  -68.00  0.001 
  -67.00  0.001 
  -66.00  0.001 
  -65.00  0.001 
  -64.00  0.001 
  -63.00  0.001 
  -62.00  0.001 
  -61.00  0.001 
  -60.00  0.001 
  -59.00  0.001 
  -58.00  0.001 
  -57.00  0.001 
  -56.00  0.001 
  -55.00  0.001 
  -54.00  0.001 
  -53.00  0.001 
  -52.00  0.001 
  -51.00  0.001 
  -50.00  0.001 
  -49.00  0.001 
  -48.00  0.001 
  -47.00  0.001 
  -46.00  0.001 
  -45.00  0.001 
  -44.00  0.001 
  -43.00  0.001 
  -42.00  0.001 
  -41.00  0.001 
  -40.00  0.001 
  -39.00  0.001 
  -38.00  0.001 
  -37.00  0.001 
  -36.00  0.001 
  -35.00  0.001 
  -34.00  0.001 
  -33.00  0.001 
  -32.00  0.001 
  -31.00  0.001 
  -30.00  0.001 
  -29.00  0.001 
  -28.00  0.001 
  -27.00  0.001 
  -26.00  0.001 
  -25.00  0.001 
  -24.00  0.001 
  -23.00  0.001 
  -22.00  0.001 
  -21.00  0.001 
  -20.00  0.001 
  -19.00  0.001 
  -18.00  0.001 
  -17.00  0.001 
  -16.00  0.001 
  -15.00  0.001 
  -14.00  0.001 
  -13.00  0.001 
  -12.00  0.001 
  -11.00  0.001 
  -10.00  0.001 
   -9.00  0.001 
   -8.00  0.001 
   -7.00  0.001 
   -6.00  0.001 
   -5.00  0.001 
   -4.00  0.001 
   -3.00  0.001 
   -2.00  0.001 
   -1.00  0.001 
    0.00  0.001 
    1.00  0.001 
    2.00  0.001 
    3.00  0.001 
    4.00  0.001 
    5.00  0.001 
    6.00  0.001 
    7.00  0.001 
    8.00  0.001 
    9.00  0.001 
   10.00  0.001 
   11.00  0.001 
   12.00  0.001 
   13.00  0.001 
   14.00  0.001 
   15.00  0.001 
   16.00  0.001 
   17.00  0.001 
   18.00  0.001 
   19.00  0.001 
   20.00  0.001 
   21.00  0.001 
   22.00  0.001 
   23.00  0.001 
   24.00  0.001 
   25.00  0.001 
   26.00  0.001 
   27.00  0.001 
   28.00  0.002 
   29.00  0.002 
   30.00  0.002 
   31.00  0.002 
   32.00  0.002 
   33.00  0.002 
   34.00  0.001 
   35.00  0.001 
   36.00  0.001 
   37.00  0.001 
   38.00  0.001 
   39.00  0.001 
   40.00  0.001 
   41.00  0.001 
   42.00  0.002 
   43.00  0.002 
   44.00  0.002 
   45.00  0.002 
   46.00  0.002 
   47.00  0.002 
   48.00  0.002 
   49.00  0.002 
   50.00  0.002 
   51.00  0.002 
   52.00  0.002 
   53.00  0.002 
   54.00  0.002 
   55.00  0.002 
   56.00  0.002 
   57.00  0.002 
   58.00  0.002 
   59.00  0.002 
   60.00  0.002 
   61.00  0.002 
   62.00  0.002 
   63.00  0.002 
   64.00  0.002 
   65.00  0.002 
   66.00  0.003 
   67.00  0.003 
   68.00  0.003 
   69.00  0.003 
   70.00  0.003 
   71.00  0.003 
   72.00  0.003 
   73.00  0.003 
   74.00  0.004 
   75.00  0.004 
   76.00  0.004 
   77.00  0.005 
   78.00  0.005 
   79.00  0.005 
   80.00  0.006 
   81.00  0.007 
   82.00  0.007 
   83.00  0.008 
   84.00  0.009 
   85.00  0.010 
   86.00  0.011 
   87.00  0.011 
   88.00  0.011 
   89.00  0.011 
   90.00  0.011 
   91.00  0.011 
   92.00  0.011 
   93.00  0.012 
   94.00  0.013 
   95.00  0.014 
   96.00  0.016 
   97.00  0.018 
   98.00  0.021 
   99.00  0.024 
  100.00  0.029 
  101.00  0.034 
  102.00  0.041 
  103.00  0.048 
  104.00  0.053 
  105.00  0.056 
  106.00  0.055 
  107.00  0.050 
  108.00  0.044 
  109.00  0.038 
  110.00  0.032 
  111.00  0.028 
  112.00  0.025 
  113.00  0.022 
  114.00  0.020 
  115.00  0.019 
  116.00  0.019 
  117.00  0.019 
  118.00  0.020 
  119.00  0.022 
  120.00  0.024 
  121.00  0.027 
  122.00  0.030 
  123.00  0.032 
  124.00  0.034 
  125.00  0.033 
  126.00  0.030 
  127.00  0.027 
  128.00  0.023 
  129.00  0.020 
  130.00  0.017 
  131.00  0.015 
  132.00  0.013 
  133.00  0.012 
  134.00  0.011 
  135.00  0.010 
  136.00  0.009 
  137.00  0.009 
  138.00  0.008 
  139.00  0.008 
  140.00  0.008 
  141.00  0.008 
  142.00  0.008 
  143.00  0.008 
  144.00  0.008 
  145.00  0.008 
  146.00  0.008 
  147.00  0.008 
  148.00  0.008 
  149.00  0.008 
  150.00  0.008 
  151.00  0.009 
  152.00  0.009 
  153.00  0.009 
  154.00  0.010 
  155.00  0.010 
  156.00  0.011 
  157.00  0.012 
  158.00  0.013 
  159.00  0.014 
  160.00  0.016 
  161.00  0.018 
  162.00  0.020 
  163.00  0.022 
  164.00  0.024 
  165.00  0.026 
  166.00  0.028 
  167.00  0.029 
  168.00  0.029 
  169.00  0.030 
  170.00  0.031 
  171.00  0.032 
  172.00  0.034 
  173.00  0.037 
  174.00  0.041 
  175.00  0.047 
  176.00  0.054 
  177.00  0.062 
  178.00  0.071 
  179.00  0.077 
  180.00  0.078 
  181.00  0.075 
  182.00  0.068 
  183.00  0.061 
  184.00  0.053 
  185.00  0.048 
  186.00  0.044 
  187.00  0.041 
  188.00  0.040 
  189.00  0.040 
  190.00  0.041 
  191.00  0.044 
  192.00  0.046 
  193.00  0.049 
  194.00  0.049 
  195.00  0.048 
  196.00  0.045 
  197.00  0.042 
  198.00  0.039 
  199.00  0.036 
  200.00  0.035 
  201.00  0.034 
  202.00  0.034 
  203.00  0.034 
  204.00  0.035 
  205.00  0.037 
  206.00  0.040 
  207.00  0.043 
  208.00  0.048 
  209.00  0.054 
  210.00  0.062 
  211.00  0.071 
  212.00  0.082 
  213.00  0.094 
  214.00  0.105 
  215.00  0.114 
  216.00  0.120 
  217.00  0.122 
  218.00  0.122 
  219.00  0.120 
  220.00  0.117 
  221.00  0.114 
  222.00  0.112 
  223.00  0.114 
  224.00  0.120 
  225.00  0.130 
  226.00  0.146 
  227.00  0.166 
  228.00  0.191 
  229.00  0.216 
  230.00  0.235 
  231.00  0.241 
  232.00  0.232 
  233.00  0.210 
  234.00  0.185 
  235.00  0.160 
  236.00  0.139 
  237.00  0.123 
  238.00  0.110 
  239.00  0.102 
  240.00  0.097 
  241.00  0.095 
  242.00  0.095 
  243.00  0.098 
  244.00  0.104 
  245.00  0.113 
  246.00  0.125 
  247.00  0.142 
  248.00  0.164 
  249.00  0.191 
  250.00  0.223 
  251.00  0.256 
  252.00  0.284 
  253.00  0.300 
  254.00  0.301 
  255.00  0.290 
  256.00  0.276 
  257.00  0.265 
  258.00  0.259 
  259.00  0.257 
  260.00  0.257 
  261.00  0.258 
  262.00  0.257 
  263.00  0.249 
  264.00  0.232 
  265.00  0.207 
  266.00  0.180 
  267.00  0.155 
  268.00  0.133 
  269.00  0.115 
  270.00  0.102 
  271.00  0.091 
  272.00  0.084 
  273.00  0.079 
  274.00  0.076 
  275.00  0.075 
  276.00  0.077 
  277.00  0.080 
  278.00  0.086 
  279.00  0.094 
  280.00  0.104 
  281.00  0.112 
  282.00  0.117 
  283.00  0.116 
  284.00  0.108 
  285.00  0.097 
  286.00  0.085 
  287.00  0.074 
  288.00  0.065 
  289.00  0.058 
  290.00  0.052 
  291.00  0.048 
  292.00  0.045 
  293.00  0.044 
  294.00  0.043 
  295.00  0.043 
  296.00  0.044 
  297.00  0.046 
  298.00  0.049 
  299.00  0.053 
  300.00  0.059 
  301.00  0.067 
  302.00  0.078 
  303.00  0.091 
  304.00  0.106 
  305.00  0.122 
  306.00  0.135 
  307.00  0.141 
  308.00  0.137 
  309.00  0.125 
  310.00  0.109 
  311.00  0.092 
  312.00  0.077 
  313.00  0.065 
  314.00  0.055 
  315.00  0.048 
  316.00  0.042 
  317.00  0.037 
  318.00  0.033 
  319.00  0.030 
  320.00  0.028 
  321.00  0.026 
  322.00  0.025 
  323.00  0.024 
  324.00  0.023 
  325.00  0.022 
  326.00  0.022 
  327.00  0.023 
  328.00  0.024 
  329.00  0.025 
  330.00  0.027 
  331.00  0.029 
  332.00  0.032 
  333.00  0.036 
  334.00  0.041 
  335.00  0.045 
  336.00  0.048 
  337.00  0.048 
  338.00  0.045 
  339.00  0.041 
  340.00  0.037 
  341.00  0.033 
  342.00  0.030 
  343.00  0.027 
  344.00  0.026 
  345.00  0.025 
  346.00  0.025 
  347.00  0.024 
  348.00  0.023 
  349.00  0.021 
  350.00  0.020 
  351.00  0.018 
  352.00  0.017 
  353.00  0.016 
  354.00  0.015 
  355.00  0.014 
  356.00  0.014 
  357.00  0.014 
  358.00  0.014 
  359.00  0.014 
  360.00  0.014 
  361.00  0.014 
  362.00  0.014 
  363.00  0.015 
  364.00  0.015 
  365.00  0.016 
  366.00  0.017 
  367.00  0.018 
  368.00  0.019 
  369.00  0.021 
  370.00  0.023 
  371.00  0.026 
  372.00  0.029 
  373.00  0.033 
  374.00  0.038 
  375.00  0.045 
  376.00  0.053 
  377.00  0.063 
  378.00  0.075 
  379.00  0.087 
  380.00  0.097 
  381.00  0.103 
  382.00  0.102 
  383.00  0.094 
  384.00  0.082 
  385.00  0.070 
  386.00  0.060 
  387.00  0.051 
  388.00  0.045 
  389.00  0.039 
  390.00  0.036 
  391.00  0.033 
  392.00  0.031 
  393.00  0.029 
  394.00  0.028 
  395.00  0.028 
  396.00  0.028 
  397.00  0.029 
  398.00  0.030 
  399.00  0.032 
  400.00  0.035 
  401.00  0.038 
  402.00  0.043 
  403.00  0.049 
  404.00  0.056 
  405.00  0.065 
  406.00  0.077 
  407.00  0.090 
  408.00  0.106 
  409.00  0.121 
  410.00  0.134 
  411.00  0.141 
  412.00  0.139 
  413.00  0.129 
  414.00  0.114 
  415.00  0.097 
  416.00  0.083 
  417.00  0.070 
  418.00  0.061 
  419.00  0.054 
  420.00  0.049 
  421.00  0.046 
  422.00  0.044 
  423.00  0.043 
  424.00  0.043 
  425.00  0.044 
  426.00  0.043 
  427.00  0.042 
  428.00  0.040 
  429.00  0.036 
  430.00  0.033 
  431.00  0.030 
  432.00  0.027 
  433.00  0.025 
  434.00  0.024 
  435.00  0.022 
  436.00  0.022 
  437.00  0.021 
  438.00  0.021 
  439.00  0.021 
  440.00  0.021 
  441.00  0.021 
  442.00  0.021 
  443.00  0.022 
  444.00  0.023 
  445.00  0.024 
  446.00  0.025 
  447.00  0.026 
  448.00  0.028 
  449.00  0.030 
  450.00  0.033 
  451.00  0.036 
  452.00  0.039 
  453.00  0.044 
  454.00  0.049 
  455.00  0.056 
  456.00  0.064 
  457.00  0.075 
  458.00  0.088 
  459.00  0.105 
  460.00  0.126 
  461.00  0.152 
  462.00  0.181 
  463.00  0.211 
  464.00  0.235 
  465.00  0.246 
  466.00  0.240 
  467.00  0.219 
  468.00  0.193 
  469.00  0.167 
  470.00  0.145 
  471.00  0.128 
  472.00  0.117 
  473.00  0.111 
  474.00  0.109 
  475.00  0.110 
  476.00  0.113 
  477.00  0.114 
  478.00  0.112 
  479.00  0.105 
  480.00  0.094 
  481.00  0.082 
  482.00  0.071 
  483.00  0.061 
  484.00  0.053 
  485.00  0.047 
  486.00  0.041 
  487.00  0.037 
  488.00  0.034 
  489.00  0.031 
  490.00  0.029 
  491.00  0.027 
  492.00  0.026 
  493.00  0.025 
  494.00  0.024 
  495.00  0.023 
  496.00  0.022 
  497.00  0.022 
  498.00  0.021 
  499.00  0.021 
  500.00  0.021 
  501.00  0.021 
  502.00  0.021 
  503.00  0.021 
  504.00  0.021 
  505.00  0.021 
  506.00  0.022 
  507.00  0.022 
  508.00  0.023 
  509.00  0.023 
  510.00  0.024 
  511.00  0.024 
  512.00  0.025 
  513.00  0.026 
  514.00  0.027 
  515.00  0.028 
  516.00  0.030 
  517.00  0.031 
  518.00  0.033 
  519.00  0.035 
  520.00  0.037 
  521.00  0.039 
  522.00  0.042 
  523.00  0.045 
  524.00  0.048 
  525.00  0.052 
  526.00  0.056 
  527.00  0.061 
  528.00  0.066 
  529.00  0.073 
  530.00  0.080 
  531.00  0.089 
  532.00  0.099 
  533.00  0.112 
  534.00  0.126 
  535.00  0.144 
  536.00  0.166 
  537.00  0.192 
  538.00  0.226 
  539.00  0.267 
  540.00  0.319 
  541.00  0.386 
  542.00  0.469 
  543.00  0.572 
  544.00  0.693 
  545.00  0.823 
  546.00  0.936 
  547.00  1.000 
  548.00  0.989 
  549.00  0.908 
  550.00  0.786 
  551.00  0.658 
  552.00  0.541 
  553.00  0.444 
  554.00  0.365 
  555.00  0.303 
  556.00  0.254 
  557.00  0.215 
  558.00  0.184 
  559.00  0.159 
  560.00  0.138 
  561.00  0.121 
  562.00  0.107 
  563.00  0.095 
  564.00  0.085 
  565.00  0.077 
  566.00  0.070 
  567.00  0.063 
  568.00  0.058 
  569.00  0.053 
  570.00  0.049 
  571.00  0.045 
  572.00  0.042 
  573.00  0.039 
  574.00  0.036 
  575.00  0.034 
  576.00  0.032 
  577.00  0.030 
  578.00  0.028 
  579.00  0.027 
  580.00  0.025 
  581.00  0.024 
  582.00  0.023 
  583.00  0.022 
  584.00  0.021 
  585.00  0.020 
  586.00  0.019 
  587.00  0.018 
  588.00  0.017 
  589.00  0.017 
  590.00  0.016 
  591.00  0.015 
  592.00  0.015 
  593.00  0.014 
  594.00  0.014 
  595.00  0.013 
  596.00  0.013 
  597.00  0.013 
  598.00  0.012 
  599.00  0.012 
  600.00  0.012 
  601.00  0.011 
  602.00  0.011 
  603.00  0.011 
  604.00  0.011 
  605.00  0.010 
  606.00  0.010 
  607.00  0.010 
  608.00  0.010 
  609.00  0.010 
  610.00  0.009 
  611.00  0.009 
  612.00  0.009 
  613.00  0.009 
  614.00  0.009 
  615.00  0.009 
  616.00  0.009 
  617.00  0.009 
  618.00  0.009 
  619.00  0.009 
  620.00  0.009 
  621.00  0.009 
  622.00  0.009 
  623.00  0.009 
  624.00  0.009 
  625.00  0.009 
  626.00  0.009 
  627.00  0.009 
  628.00  0.009 
  629.00  0.009 
  630.00  0.009 
  631.00  0.009 
  632.00  0.009 
  633.00  0.009 
  634.00  0.009 
  635.00  0.010 
  636.00  0.010 
  637.00  0.010 
  638.00  0.010 
  639.00  0.010 
  640.00  0.011 
  641.00  0.011 
  642.00  0.012 
  643.00  0.012 
  644.00  0.013 
  645.00  0.013 
  646.00  0.014 
  647.00  0.015 
  648.00  0.015 
  649.00  0.016 
  650.00  0.018 
  651.00  0.019 
  652.00  0.020 
  653.00  0.022 
  654.00  0.024 
  655.00  0.027 
  656.00  0.030 
  657.00  0.034 
  658.00  0.038 
  659.00  0.043 
  660.00  0.050 
  661.00  0.058 
  662.00  0.069 
  663.00  0.083 
  664.00  0.099 
  665.00  0.120 
  666.00  0.144 
  667.00  0.170 
  668.00  0.192 
  669.00  0.204 
  670.00  0.201 
  671.00  0.185 
  672.00  0.161 
  673.00  0.135 
  674.00  0.113 
  675.00  0.094 
  676.00  0.079 
  677.00  0.067 
  678.00  0.058 
  679.00  0.050 
  680.00  0.045 
  681.00  0.040 
  682.00  0.036 
  683.00  0.033 
  684.00  0.031 
  685.00  0.029 
  686.00  0.028 
  687.00  0.027 
  688.00  0.026 
  689.00  0.026 
  690.00  0.026 
  691.00  0.026 
  692.00  0.026 
  693.00  0.027 
  694.00  0.028 
  695.00  0.029 
  696.00  0.031 
  697.00  0.033 
  698.00  0.035 
  699.00  0.038 
  700.00  0.042 
  701.00  0.046 
  702.00  0.051 
  703.00  0.057 
  704.00  0.064 
  705.00  0.071 
  706.00  0.078 
  707.00  0.087 
  708.00  0.098 
  709.00  0.112 
  710.00  0.131 
  711.00  0.155 
  712.00  0.186 
  713.00  0.223 
  714.00  0.265 
  715.00  0.305 
  716.00  0.332 
  717.00  0.337 
  718.00  0.317 
  719.00  0.281 
  720.00  0.239 
  721.00  0.200 
  722.00  0.166 
  723.00  0.140 
  724.00  0.119 
  725.00  0.104 
  726.00  0.092 
  727.00  0.084 
  728.00  0.079 
  729.00  0.076 
  730.00  0.074 
  731.00  0.072 
  732.00  0.070 
  733.00  0.065 
  734.00  0.059 
  735.00  0.053 
  736.00  0.048 
  737.00  0.043 
  738.00  0.040 
  739.00  0.037 
  740.00  0.036 
  741.00  0.036 
  742.00  0.036 
  743.00  0.038 
  744.00  0.040 
  745.00  0.043 
  746.00  0.046 
  747.00  0.048 
  748.00  0.047 
  749.00  0.044 
  750.00  0.039 
  751.00  0.034 
  752.00  0.029 
  753.00  0.025 
  754.00  0.022 
  755.00  0.019 
  756.00  0.017 
  757.00  0.015 
  758.00  0.014 
  759.00  0.013 
  760.00  0.012 
  761.00  0.011 
  762.00  0.010 
  763.00  0.009 
  764.00  0.009 
  765.00  0.008 
  766.00  0.008 
  767.00  0.007 
  768.00  0.007 
  769.00  0.007 
  770.00  0.006 
  771.00  0.006 
  772.00  0.006 
  773.00  0.006 
  774.00  0.005 
  775.00  0.005 
  776.00  0.005 
  777.00  0.005 
  778.00  0.005 
  779.00  0.005 
  780.00  0.004 
  781.00  0.004 
  782.00  0.004 
  783.00  0.004 
  784.00  0.004 
  785.00  0.004 
  786.00  0.004 
  787.00  0.004 
  788.00  0.004 
  789.00  0.003 
  790.00  0.003 
  791.00  0.003 
  792.00  0.003 
  793.00  0.003 
  794.00  0.003 
  795.00  0.003 
  796.00  0.003 
  797.00  0.003 
  798.00  0.003 
  799.00  0.003 
  800.00  0.003 
  801.00  0.003 
  802.00  0.003 
  803.00  0.003 
  804.00  0.003 
  805.00  0.003 
  806.00  0.002 
  807.00  0.002 
  808.00  0.002 
  809.00  0.002 
  810.00  0.002 
  811.00  0.002 
  812.00  0.002 
  813.00  0.002 
  814.00  0.002 
  815.00  0.002 
  816.00  0.002 
  817.00  0.002 
  818.00  0.002 
  819.00  0.002 
  820.00  0.002 
  821.00  0.002 
  822.00  0.002 
  823.00  0.002 
  824.00  0.002 
  825.00  0.002 
  826.00  0.002 
  827.00  0.002 
  828.00  0.002 
  829.00  0.002 
  830.00  0.002 
  831.00  0.002 
  832.00  0.002 
  833.00  0.002 
  834.00  0.002 
  835.00  0.002 
  836.00  0.002 
  837.00  0.002 
  838.00  0.002 
  839.00  0.002 
  840.00  0.002 
  841.00  0.002 
  842.00  0.002 
  843.00  0.002 
  844.00  0.002 
  845.00  0.002 
  846.00  0.002 
  847.00  0.002 
  848.00  0.002 
  849.00  0.002 
  850.00  0.001 
  851.00  0.001 
  852.00  0.001 
  853.00  0.001 
  854.00  0.001 
  855.00  0.001 
  856.00  0.001 
  857.00  0.001 
  858.00  0.001 
  859.00  0.001 
  860.00  0.001 
  861.00  0.001 
  862.00  0.001 
  863.00  0.001 
  864.00  0.001 
  865.00  0.001 
  866.00  0.001 
  867.00  0.001 
  868.00  0.001 
  869.00  0.001 
  870.00  0.001 
  871.00  0.001 
  872.00  0.001 
  873.00  0.001 
  874.00  0.001 
  875.00  0.001 
  876.00  0.001 
  877.00  0.001 
  878.00  0.001 
  879.00  0.001 
  880.00  0.001 
  881.00  0.002 
  882.00  0.002 
  883.00  0.002 
  884.00  0.002 
  885.00  0.002 
  886.00  0.002 
  887.00  0.002 
  888.00  0.002 
  889.00  0.002 
  890.00  0.002 
  891.00  0.002 
  892.00  0.002 
  893.00  0.002 
  894.00  0.002 
  895.00  0.002 
  896.00  0.002 
  897.00  0.002 
  898.00  0.002 
  899.00  0.003 
  900.00  0.003 
  901.00  0.003 
  902.00  0.003 
  903.00  0.003 
  904.00  0.004 
  905.00  0.004 
  906.00  0.005 
  907.00  0.005 
  908.00  0.006 
  909.00  0.007 
  910.00  0.008 
  911.00  0.009 
  912.00  0.010 
  913.00  0.013 
  914.00  0.015 
  915.00  0.018 
  916.00  0.022 
  917.00  0.025 
  918.00  0.027 
  919.00  0.028 
  920.00  0.026 
  921.00  0.023 
  922.00  0.020 
  923.00  0.017 
  924.00  0.014 
  925.00  0.011 
  926.00  0.010 
  927.00  0.008 
  928.00  0.007 
  929.00  0.006 
  930.00  0.005 
  931.00  0.005 
  932.00  0.004 
  933.00  0.004 
  934.00  0.003 
  935.00  0.003 
  936.00  0.003 
  937.00  0.003 
  938.00  0.003 
  939.00  0.002 
  940.00  0.002 
  941.00  0.002 
  942.00  0.002 
  943.00  0.002 
  944.00  0.002 
  945.00  0.002 
  946.00  0.002 
  947.00  0.002 
  948.00  0.002 
  949.00  0.001 
  950.00  0.001 
  951.00  0.001 
  952.00  0.001 
  953.00  0.001 
  954.00  0.001 
  955.00  0.001 
  956.00  0.001 
  957.00  0.001 
  958.00  0.001 
  959.00  0.001 
  960.00  0.001 
  961.00  0.001 
  962.00  0.001 
  963.00  0.001 
  964.00  0.001 
  965.00  0.001 
  966.00  0.001 
  967.00  0.001 
  968.00  0.001 
  969.00  0.001 
  970.00  0.001 
  971.00  0.001 
  972.00  0.001 
  973.00  0.001 
  974.00  0.001 
  975.00  0.001 
  976.00  0.001 
  977.00  0.001 
  978.00  0.001 
  979.00  0.001 
  980.00  0.001 
  981.00  0.001 
  982.00  0.001 
  983.00  0.001 
  984.00  0.001 
  985.00  0.001 
  986.00  0.001 
  987.00  0.001 
  988.00  0.001 
  989.00  0.001 
  990.00  0.001 
  991.00  0.001 
  992.00  0.001 
  993.00  0.001 
  994.00  0.001 
  995.00  0.001 
  996.00  0.001 
  997.00  0.001 
  998.00  0.001 
  999.00  0.001 
 1000.00  0.001 
 1001.00  0.001 
 1002.00  0.001 
 1003.00  0.001 
 1004.00  0.001 
 1005.00  0.001 
 1006.00  0.001 
 1007.00  0.001 
 1008.00  0.001 
 1009.00  0.001 
 1010.00  0.001 
 1011.00  0.001 
 1012.00  0.001 
 1013.00  0.001 
 1014.00  0.001 
 1015.00  0.001 
 1016.00  0.001 
 1017.00  0.001 
 1018.00  0.001 
 1019.00  0.001 
 1020.00  0.001 
 1021.00  0.001 
 1022.00  0.001 
 1023.00  0.001 
 1024.00  0.001 
 1025.00  0.001 
 1026.00  0.001 
 1027.00  0.001 
 1028.00  0.001 
 1029.00  0.001 
 1030.00  0.001 
 1031.00  0.001 
 1032.00  0.001 
 1033.00  0.001 
 1034.00  0.001 
 1035.00  0.001 
 1036.00  0.001 
 1037.00  0.001 
 1038.00  0.001 
 1039.00  0.001 
 1040.00  0.001 
 1041.00  0.001 
 1042.00  0.001 
 1043.00  0.001 
 1044.00  0.001 
 1045.00  0.001 
 1046.00  0.001 
 1047.00  0.001 
 1048.00  0.001 
 1049.00  0.001 
 1050.00  0.001 
 1051.00  0.001 
 1052.00  0.001 
 1053.00  0.001 
 1054.00  0.001 
 1055.00  0.001 
 1056.00  0.001 
 1057.00  0.001 
 1058.00  0.001 
 1059.00  0.001 
 1060.00  0.001 
 1061.00  0.001 
 1062.00  0.001 
 1063.00  0.001 
 1064.00  0.001 
 1065.00  0.001 
 1066.00  0.001 
 1067.00  0.001 
 1068.00  0.001 
 1069.00  0.001 
 1070.00  0.001 
 1071.00  0.001 
 1072.00  0.001 
 1073.00  0.001 
 1074.00  0.002 
 1075.00  0.002 
 1076.00  0.002 
 1077.00  0.002 
 1078.00  0.002 
 1079.00  0.002 
 1080.00  0.002 
 1081.00  0.002 
 1082.00  0.002 
 1083.00  0.002 
 1084.00  0.002 
 1085.00  0.002 
 1086.00  0.002 
 1087.00  0.003 
 1088.00  0.003 
 1089.00  0.003 
 1090.00  0.003 
 1091.00  0.003 
 1092.00  0.003 
 1093.00  0.004 
 1094.00  0.004 
 1095.00  0.004 
 1096.00  0.005 
 1097.00  0.005 
 1098.00  0.006 
 1099.00  0.007 
 1100.00  0.007 
 1101.00  0.008 
 1102.00  0.010 
 1103.00  0.011 
 1104.00  0.013 
 1105.00  0.015 
 1106.00  0.018 
 1107.00  0.022 
 1108.00  0.027 
 1109.00  0.032 
 1110.00  0.039 
 1111.00  0.046 
 1112.00  0.051 
 1113.00  0.053 
 1114.00  0.051 
 1115.00  0.046 
 1116.00  0.039 
 1117.00  0.033 
 1118.00  0.027 
 1119.00  0.022 
 1120.00  0.018 
 1121.00  0.016 
 1122.00  0.013 
 1123.00  0.011 
 1124.00  0.010 
 1125.00  0.009 
 1126.00  0.008 
 1127.00  0.007 
 1128.00  0.006 
 1129.00  0.005 
 1130.00  0.005 
 1131.00  0.005 
 1132.00  0.004 
 1133.00  0.004 
 1134.00  0.004 
 1135.00  0.003 
 1136.00  0.003 
 1137.00  0.003 
 1138.00  0.003 
 1139.00  0.003 
 1140.00  0.003 
 1141.00  0.002 
 1142.00  0.002 
 1143.00  0.002 
 1144.00  0.002 
 1145.00  0.002 
 1146.00  0.002 
 1147.00  0.002 
 1148.00  0.002 
 1149.00  0.002 
 1150.00  0.002 
 1151.00  0.002 
 1152.00  0.002 
 1153.00  0.002 
 1154.00  0.002 
 1155.00  0.002 
 1156.00  0.002 
 1157.00  0.002 
 1158.00  0.002 
 1159.00  0.002 
 1160.00  0.002 
 1161.00  0.001 
 1162.00  0.001 
 1163.00  0.001 
 1164.00  0.001 
 1165.00  0.001 
 1166.00  0.001 
 1167.00  0.001 
 1168.00  0.001 
 1169.00  0.001 
 1170.00  0.001 
 1171.00  0.001 
 1172.00  0.001 
 1173.00  0.001 
 1174.00  0.001 
 1175.00  0.001 
 1176.00  0.001 
 1177.00  0.001 
 1178.00  0.001 
 1179.00  0.001 
 1180.00  0.001 
 1181.00  0.001 
 1182.00  0.001 
 1183.00  0.001 
 1184.00  0.001 
 1185.00  0.001 
 1186.00  0.001 
 1187.00  0.001 
 1188.00  0.001 
 1189.00  0.001 
 1190.00  0.001 
 1191.00  0.001 
 1192.00  0.001 
 1193.00  0.001 
 1194.00  0.001 
 1195.00  0.001 
 1196.00  0.001 
 1197.00  0.001 
 1198.00  0.001 
 1199.00  0.001 
 1200.00  0.002 
 1201.00  0.002 
 1202.00  0.002 
 1203.00  0.002 
 1204.00  0.002 
 1205.00  0.002 
 1206.00  0.002 
 1207.00  0.002 
 1208.00  0.002 
 1209.00  0.002 
 1210.00  0.002 
 1211.00  0.002 
 1212.00  0.002 
 1213.00  0.002 
 1214.00  0.002 
 1215.00  0.002 
 1216.00  0.002 
 1217.00  0.002 
 1218.00  0.002 
 1219.00  0.002 
 1220.00  0.002 
 1221.00  0.002 
 1222.00  0.002 
 1223.00  0.002 
 1224.00  0.002 
 1225.00  0.002 
 1226.00  0.002 
 1227.00  0.002 
 1228.00  0.002 
 1229.00  0.002 
 1230.00  0.002 
 1231.00  0.002 
 1232.00  0.002 
 1233.00  0.002 
 1234.00  0.002 
 1235.00  0.002 
 1236.00  0.002 
 1237.00  0.002 
 1238.00  0.002 
 1239.00  0.003 
 1240.00  0.003 
 1241.00  0.003 
 1242.00  0.003 
 1243.00  0.003 
 1244.00  0.003 
 1245.00  0.003 
 1246.00  0.003 
 1247.00  0.003 
 1248.00  0.003 
 1249.00  0.003 
 1250.00  0.003 
 1251.00  0.003 
 1252.00  0.003 
 1253.00  0.004 
 1254.00  0.004 
 1255.00  0.004 
 1256.00  0.004 
 1257.00  0.004 
 1258.00  0.004 
 1259.00  0.004 
 1260.00  0.004 
 1261.00  0.005 
 1262.00  0.005 
 1263.00  0.005 
 1264.00  0.005 
 1265.00  0.005 
 1266.00  0.005 
 1267.00  0.006 
 1268.00  0.006 
 1269.00  0.006 
 1270.00  0.007 
 1271.00  0.007 
 1272.00  0.007 
 1273.00  0.008 
 1274.00  0.008 
 1275.00  0.008 
 1276.00  0.009 
 1277.00  0.009 
 1278.00  0.010 
 1279.00  0.011 
 1280.00  0.012 
 1281.00  0.012 
 1282.00  0.013 
 1283.00  0.014 
 1284.00  0.016 
 1285.00  0.017 
 1286.00  0.019 
 1287.00  0.021 
 1288.00  0.023 
 1289.00  0.026 
 1290.00  0.029 
 1291.00  0.033 
 1292.00  0.037 
 1293.00  0.043 
 1294.00  0.050 
 1295.00  0.059 
 1296.00  0.070 
 1297.00  0.085 
 1298.00  0.103 
 1299.00  0.125 
 1300.00  0.151 
 1301.00  0.179 
 1302.00  0.204 
 1303.00  0.218 
 1304.00  0.217 
 1305.00  0.201 
 1306.00  0.175 
 1307.00  0.147 
 1308.00  0.122 
 1309.00  0.101 
 1310.00  0.084 
 1311.00  0.070 
 1312.00  0.059 
 1313.00  0.051 
 1314.00  0.044 
 1315.00  0.039 
 1316.00  0.034 
 1317.00  0.031 
 1318.00  0.028 
 1319.00  0.025 
 1320.00  0.023 
 1321.00  0.022 
 1322.00  0.020 
 1323.00  0.019 
 1324.00  0.018 
 1325.00  0.017 
 1326.00  0.017 
 1327.00  0.016 
 1328.00  0.016 
 1329.00  0.015 
 1330.00  0.015 
 1331.00  0.015 
 1332.00  0.015 
 1333.00  0.015 
 1334.00  0.015 
 1335.00  0.015 
 1336.00  0.015 
 1337.00  0.015 
 1338.00  0.016 
 1339.00  0.016 
 1340.00  0.016 
 1341.00  0.017 
 1342.00  0.017 
 1343.00  0.018 
 1344.00  0.019 
 1345.00  0.020 
 1346.00  0.021 
 1347.00  0.022 
 1348.00  0.023 
 1349.00  0.025 
 1350.00  0.026 
 1351.00  0.028 
 1352.00  0.030 
 1353.00  0.032 
 1354.00  0.035 
 1355.00  0.038 
 1356.00  0.042 
 1357.00  0.046 
 1358.00  0.051 
 1359.00  0.057 
 1360.00  0.065 
 1361.00  0.073 
 1362.00  0.084 
 1363.00  0.097 
 1364.00  0.113 
 1365.00  0.133 
 1366.00  0.159 
 1367.00  0.190 
 1368.00  0.230 
 1369.00  0.279 
 1370.00  0.335 
 1371.00  0.392 
 1372.00  0.439 
 1373.00  0.461 
 1374.00  0.451 
 1375.00  0.416 
 1376.00  0.369 
 1377.00  0.325 
 1378.00  0.289 
 1379.00  0.266 
 1380.00  0.254 
 1381.00  0.251 
 1382.00  0.255 
 1383.00  0.259 
 1384.00  0.257 
 1385.00  0.243 
 1386.00  0.219 
 1387.00  0.190 
 1388.00  0.161 
 1389.00  0.135 
 1390.00  0.114 
 1391.00  0.097 
 1392.00  0.083 
 1393.00  0.071 
 1394.00  0.062 
 1395.00  0.055 
 1396.00  0.049 
 1397.00  0.044 
 1398.00  0.039 
 1399.00  0.035 
 1400.00  0.032 
 1401.00  0.030 
 1402.00  0.027 
 1403.00  0.025 
 1404.00  0.023 
 1405.00  0.022 
 1406.00  0.020 
 1407.00  0.019 
 1408.00  0.018 
 1409.00  0.017 
 1410.00  0.016 
 1411.00  0.015 
 1412.00  0.014 
 1413.00  0.013 
 1414.00  0.013 
 1415.00  0.012 
 1416.00  0.012 
 1417.00  0.011 
 1418.00  0.011 
 1419.00  0.010 
 1420.00  0.010 
 1421.00  0.009 
 1422.00  0.009 
 1423.00  0.009 
 1424.00  0.008 
 1425.00  0.008 
 1426.00  0.008 
 1427.00  0.008 
 1428.00  0.008 
 1429.00  0.007 
 1430.00  0.007 
 1431.00  0.007 
 1432.00  0.007 
 1433.00  0.007 
 1434.00  0.007 
 1435.00  0.006 
 1436.00  0.006 
 1437.00  0.006 
 1438.00  0.006 
 1439.00  0.006 
 1440.00  0.006 
 1441.00  0.006 
 1442.00  0.006 
 1443.00  0.006 
 1444.00  0.006 
 1445.00  0.006 
 1446.00  0.006 
 1447.00  0.006 
 1448.00  0.006 
 1449.00  0.006 
 1450.00  0.006 
 1451.00  0.006 
 1452.00  0.007 
 1453.00  0.007 
 1454.00  0.007 
 1455.00  0.007 
 1456.00  0.008 
 1457.00  0.008 
 1458.00  0.009 
 1459.00  0.010 
 1460.00  0.010 
 1461.00  0.012 
 1462.00  0.013 
 1463.00  0.015 
 1464.00  0.017 
 1465.00  0.020 
 1466.00  0.024 
 1467.00  0.028 
 1468.00  0.033 
 1469.00  0.038 
 1470.00  0.042 
 1471.00  0.043 
 1472.00  0.041 
 1473.00  0.037 
 1474.00  0.032 
 1475.00  0.027 
 1476.00  0.023 
 1477.00  0.019 
 1478.00  0.016 
 1479.00  0.014 
 1480.00  0.012 
 1481.00  0.011 
 1482.00  0.010 
 1483.00  0.009 
 1484.00  0.008 
 1485.00  0.007 
 1486.00  0.007 
 1487.00  0.006 
 1488.00  0.006 
 1489.00  0.006 
 1490.00  0.005 
 1491.00  0.005 
 1492.00  0.005 
 1493.00  0.005 
 1494.00  0.005 
 1495.00  0.004 
 1496.00  0.004 
 1497.00  0.004 
 1498.00  0.004 
 1499.00  0.004 
 1500.00  0.004 
 1501.00  0.004 
 1502.00  0.004 
 1503.00  0.004 
 1504.00  0.004 
 1505.00  0.004 
 1506.00  0.004 
 1507.00  0.004 
 1508.00  0.004 
 1509.00  0.004 
 1510.00  0.004 
 1511.00  0.004 
 1512.00  0.004 
 1513.00  0.004 
 1514.00  0.004 
 1515.00  0.004 
 1516.00  0.004 
 1517.00  0.004 
 1518.00  0.004 
 1519.00  0.004 
 1520.00  0.004 
 1521.00  0.004 
 1522.00  0.004 
 1523.00  0.004 
 1524.00  0.004 
 1525.00  0.004 
 1526.00  0.004 
 1527.00  0.004 
 1528.00  0.004 
 1529.00  0.004 
 1530.00  0.004 
 1531.00  0.004 
 1532.00  0.004 
 1533.00  0.004 
 1534.00  0.004 
 1535.00  0.004 
 1536.00  0.004 
 1537.00  0.004 
 1538.00  0.004 
 1539.00  0.004 
 1540.00  0.005 
 1541.00  0.005 
 1542.00  0.005 
 1543.00  0.005 
 1544.00  0.005 
 1545.00  0.005 
 1546.00  0.005 
 1547.00  0.005 
 1548.00  0.005 
 1549.00  0.005 
 1550.00  0.005 
 1551.00  0.006 
 1552.00  0.006 
 1553.00  0.006 
 1554.00  0.006 
 1555.00  0.006 
 1556.00  0.006 
 1557.00  0.006 
 1558.00  0.007 
 1559.00  0.007 
 1560.00  0.007 
 1561.00  0.007 
 1562.00  0.007 
 1563.00  0.008 
 1564.00  0.008 
 1565.00  0.008 
 1566.00  0.008 
 1567.00  0.009 
 1568.00  0.009 
 1569.00  0.009 
 1570.00  0.010 
 1571.00  0.010 
 1572.00  0.010 
 1573.00  0.011 
 1574.00  0.011 
 1575.00  0.012 
 1576.00  0.012 
 1577.00  0.013 
 1578.00  0.014 
 1579.00  0.014 
 1580.00  0.015 
 1581.00  0.016 
 1582.00  0.017 
 1583.00  0.018 
 1584.00  0.019 
 1585.00  0.020 
 1586.00  0.021 
 1587.00  0.023 
 1588.00  0.025 
 1589.00  0.027 
 1590.00  0.029 
 1591.00  0.031 
 1592.00  0.034 
 1593.00  0.038 
 1594.00  0.042 
 1595.00  0.047 
 1596.00  0.053 
 1597.00  0.061 
 1598.00  0.070 
 1599.00  0.082 
 1600.00  0.096 
 1601.00  0.114 
 1602.00  0.135 
 1603.00  0.158 
 1604.00  0.180 
 1605.00  0.197 
 1606.00  0.202 
 1607.00  0.195 
 1608.00  0.180 
 1609.00  0.162 
 1610.00  0.146 
 1611.00  0.133 
 1612.00  0.124 
 1613.00  0.119 
 1614.00  0.118 
 1615.00  0.120 
 1616.00  0.124 
 1617.00  0.132 
 1618.00  0.144 
 1619.00  0.159 
 1620.00  0.179 
 1621.00  0.205 
 1622.00  0.239 
 1623.00  0.282 
 1624.00  0.337 
 1625.00  0.407 
 1626.00  0.493 
 1627.00  0.594 
 1628.00  0.701 
 1629.00  0.793 
 1630.00  0.843 
 1631.00  0.830 
 1632.00  0.759 
 1633.00  0.657 
 1634.00  0.550 
 1635.00  0.453 
 1636.00  0.371 
 1637.00  0.306 
 1638.00  0.254 
 1639.00  0.213 
 1640.00  0.181 
 1641.00  0.155 
 1642.00  0.134 
 1643.00  0.116 
 1644.00  0.102 
 1645.00  0.090 
 1646.00  0.080 
 1647.00  0.072 
 1648.00  0.065 
 1649.00  0.059 
 1650.00  0.053 
 1651.00  0.049 
 1652.00  0.045 
 1653.00  0.041 
 1654.00  0.038 
 1655.00  0.035 
 1656.00  0.033 
 1657.00  0.030 
 1658.00  0.028 
 1659.00  0.027 
 1660.00  0.025 
 1661.00  0.023 
 1662.00  0.022 
 1663.00  0.021 
 1664.00  0.020 
 1665.00  0.019 
 1666.00  0.018 
 1667.00  0.017 
 1668.00  0.016 
 1669.00  0.015 
 1670.00  0.014 
 1671.00  0.014 
 1672.00  0.013 
 1673.00  0.013 
 1674.00  0.012 
 1675.00  0.012 
 1676.00  0.011 
 1677.00  0.011 
 1678.00  0.010 
 1679.00  0.010 
 1680.00  0.009 
 1681.00  0.009 
 1682.00  0.009 
 1683.00  0.008 
 1684.00  0.008 
 1685.00  0.008 
 1686.00  0.008 
 1687.00  0.007 
 1688.00  0.007 
 1689.00  0.007 
 1690.00  0.007 
 1691.00  0.007 
 1692.00  0.006 
 1693.00  0.006 
 1694.00  0.006 
 1695.00  0.006 
 1696.00  0.006 
 1697.00  0.005 
 1698.00  0.005 
 1699.00  0.005 
 1700.00  0.005 
 1701.00  0.005 
 1702.00  0.005 
 1703.00  0.005 
 1704.00  0.005 
 1705.00  0.004 
 1706.00  0.004 
 1707.00  0.004 
 1708.00  0.004 
 1709.00  0.004 
 1710.00  0.004 
 1711.00  0.004 
 1712.00  0.004 
 1713.00  0.004 
 1714.00  0.004 
 1715.00  0.004 
 1716.00  0.003 
 1717.00  0.003 
 1718.00  0.003 
 1719.00  0.003 
 1720.00  0.003 
 1721.00  0.003 
 1722.00  0.003 
 1723.00  0.003 
 1724.00  0.003 
 1725.00  0.003 
 1726.00  0.003 
 1727.00  0.003 
 1728.00  0.003 
 1729.00  0.003 
 1730.00  0.003 
 1731.00  0.003 
 1732.00  0.003 
 1733.00  0.002 
 1734.00  0.002 
 1735.00  0.002 
 1736.00  0.002 
 1737.00  0.002 
 1738.00  0.002 
 1739.00  0.002 
 1740.00  0.002 
 1741.00  0.002 
 1742.00  0.002 
 1743.00  0.002 
 1744.00  0.002 
 1745.00  0.002 
 1746.00  0.002 
 1747.00  0.002 
 1748.00  0.002 
 1749.00  0.002 
 1750.00  0.002 
 1751.00  0.002 
 1752.00  0.002 
 1753.00  0.002 
 1754.00  0.002 
 1755.00  0.002 
 1756.00  0.002 
 1757.00  0.002 
 1758.00  0.002 
 1759.00  0.002 
 1760.00  0.002 
 1761.00  0.002 
 1762.00  0.002 
 1763.00  0.002 
 1764.00  0.002 
 1765.00  0.002 
 1766.00  0.001 
 1767.00  0.001 
 1768.00  0.001 
 1769.00  0.001 
 1770.00  0.001 
 1771.00  0.001 
 1772.00  0.001 
 1773.00  0.001 
 1774.00  0.001 
 1775.00  0.001 
 1776.00  0.001 
 1777.00  0.001 
 1778.00  0.001 
 1779.00  0.001 
 1780.00  0.001 
 1781.00  0.001 
 1782.00  0.001 
 1783.00  0.001 
 1784.00  0.001 
 1785.00  0.001 
 1786.00  0.001 
 1787.00  0.001 
 1788.00  0.001 
 1789.00  0.001 
 1790.00  0.001 
 1791.00  0.001 
 1792.00  0.001 
 1793.00  0.001 
 1794.00  0.001 
 1795.00  0.001 
 1796.00  0.001 
 1797.00  0.001 
 1798.00  0.001 
 1799.00  0.001 
 1800.00  0.001 
 1801.00  0.001 
 1802.00  0.001 
 1803.00  0.001 
 1804.00  0.001 
 1805.00  0.001 
 1806.00  0.001 
 1807.00  0.001 
 1808.00  0.001 
 1809.00  0.001 
 1810.00  0.001 
 1811.00  0.001 
 1812.00  0.001 
 1813.00  0.001 
 1814.00  0.001 
 1815.00  0.001 
 1816.00  0.001 
 1817.00  0.001 
 1818.00  0.001 
 1819.00  0.001 
 1820.00  0.001 
 1821.00  0.001 
 1822.00  0.001 
 1823.00  0.001 
 1824.00  0.001 
 1825.00  0.001 
 1826.00  0.001 
 1827.00  0.001 
 1828.00  0.001 
 1829.00  0.001 
 1830.00  0.001 
 1831.00  0.001 
 1832.00  0.001 
 1833.00  0.001 
 1834.00  0.001 
 1835.00  0.001 
 1836.00  0.001 
 1837.00  0.001 
 1838.00  0.001 
 1839.00  0.001 
 1840.00  0.001 
 1841.00  0.001 
 1842.00  0.001 
 1843.00  0.001 
 1844.00  0.001 
 1845.00  0.001 
 1846.00  0.001 
 1847.00  0.001 
 1848.00  0.001 
 1849.00  0.001 
 1850.00  0.001 
 1851.00  0.001 
 1852.00  0.001 
 1853.00  0.001 
 1854.00  0.001 
 1855.00  0.001 
 1856.00  0.001 
 1857.00  0.001 
 1858.00  0.001 
 1859.00  0.001 
 1860.00  0.001 
 1861.00  0.001 
 1862.00  0.001 
 1863.00  0.001 
 1864.00  0.001 
 1865.00  0.001 
 1866.00  0.001 
 1867.00  0.001 
 1868.00  0.001 
 1869.00  0.001 
 1870.00  0.001 
 1871.00  0.001 
 1872.00  0.001 
 1873.00  0.001 
 1874.00  0.001 
 1875.00  0.001 
 1876.00  0.001 
 1877.00  0.001 
 1878.00  0.001 
 1879.00  0.001 
 1880.00  0.001 
 1881.00  0.001 
 1882.00  0.001 
 1883.00  0.001 
 1884.00  0.001 
 1885.00  0.001 
 1886.00  0.001 
 1887.00  0.000 
 1888.00  0.000 
 1889.00  0.000 
 1890.00  0.000 
 1891.00  0.000 
 1892.00  0.000 
 1893.00  0.000 
 1894.00  0.000 
 1895.00  0.000 
 1896.00  0.000 
 1897.00  0.000 
 1898.00  0.000 
 1899.00  0.000 
 1900.00  0.000 
 1901.00  0.000 
 1902.00  0.000 
 1903.00  0.000 
 1904.00  0.000 
 1905.00  0.000 
 1906.00  0.000 
 1907.00  0.000 
 1908.00  0.000 
 1909.00  0.000 
 1910.00  0.000 
 1911.00  0.000 
 1912.00  0.000 
 1913.00  0.000 
 1914.00  0.000 
 1915.00  0.000 
 1916.00  0.000 
 1917.00  0.000 
 1918.00  0.000 
 1919.00  0.000 
 1920.00  0.000 
 1921.00  0.000 
 1922.00  0.000 
 1923.00  0.000 
 1924.00  0.000 
 1925.00  0.000 
 1926.00  0.000 
 1927.00  0.000 
 1928.00  0.000 
 1929.00  0.000 
 1930.00  0.000 
 1931.00  0.000 
 1932.00  0.000 
 1933.00  0.000 
 1934.00  0.000 
 1935.00  0.000 
 1936.00  0.000 
 1937.00  0.000 
 1938.00  0.000 
 1939.00  0.000 
 1940.00  0.000 
 1941.00  0.000 
 1942.00  0.000 
 1943.00  0.000 
 1944.00  0.000 
 1945.00  0.000 
 1946.00  0.000 
 1947.00  0.000 
 1948.00  0.000 
 1949.00  0.000 
 1950.00  0.000 
 1951.00  0.000 
 1952.00  0.000 
 1953.00  0.000 
 1954.00  0.000 
 1955.00  0.000 
 1956.00  0.000 
 1957.00  0.000 
 1958.00  0.000 
 1959.00  0.000 
 1960.00  0.000 
 1961.00  0.000 
 1962.00  0.000 
 1963.00  0.000 
 1964.00  0.000 
 1965.00  0.000 
 1966.00  0.000 
 1967.00  0.000 
 1968.00  0.000 
 1969.00  0.000 
 1970.00  0.000 
 1971.00  0.000 
 1972.00  0.000 
 1973.00  0.000 
 1974.00  0.000 
 1975.00  0.000 
 1976.00  0.000 
 1977.00  0.000 
 1978.00  0.000 
 1979.00  0.000 
 1980.00  0.000 
 1981.00  0.000 
 1982.00  0.000 
 1983.00  0.000 
 1984.00  0.000 
 1985.00  0.000 
 1986.00  0.000 
 1987.00  0.000 
 1988.00  0.000 
 1989.00  0.000 
 1990.00  0.000 
 1991.00  0.000 
 1992.00  0.000 
 1993.00  0.000 
 1994.00  0.000 
 1995.00  0.000 
 1996.00  0.000 
 1997.00  0.000 
 1998.00  0.000 
 1999.00  0.000 
 2000.00  0.000 
 2001.00  0.000 
 2002.00  0.000 
 2003.00  0.000 
 2004.00  0.000 
 2005.00  0.000 
 2006.00  0.000 
 2007.00  0.000 
 2008.00  0.000 
 2009.00  0.000 
 2010.00  0.000 
 2011.00  0.000 
 2012.00  0.000 
 2013.00  0.000 
 2014.00  0.000 
 2015.00  0.000 
 2016.00  0.000 
 2017.00  0.000 
 2018.00  0.000 
 2019.00  0.000 
 2020.00  0.000 
 2021.00  0.000 
 2022.00  0.000 
 2023.00  0.000 
 2024.00  0.000 
 2025.00  0.000 
 2026.00  0.000 
 2027.00  0.000 
 2028.00  0.000 
 2029.00  0.000 
 2030.00  0.000 
 2031.00  0.000 
 2032.00  0.000 
 2033.00  0.000 
 2034.00  0.000 
 2035.00  0.000 
 2036.00  0.000 
 2037.00  0.000 
 2038.00  0.000 
 2039.00  0.000 
 2040.00  0.000 
 2041.00  0.000 
 2042.00  0.000 
 2043.00  0.000 
 2044.00  0.000 
 2045.00  0.000 
 2046.00  0.000 
 2047.00  0.000 
 2048.00  0.000 
 2049.00  0.000 
 2050.00  0.000 
 2051.00  0.000 
 2052.00  0.000 
 2053.00  0.000 
 2054.00  0.000 
 2055.00  0.000 
 2056.00  0.000 
 2057.00  0.000 
 2058.00  0.000 
 2059.00  0.000 
 2060.00  0.000 
 2061.00  0.000 
 2062.00  0.000 
 2063.00  0.000 
 2064.00  0.000 
 2065.00  0.000 
 2066.00  0.000 
 2067.00  0.000 
 2068.00  0.000 
 2069.00  0.000 
 2070.00  0.000 
 2071.00  0.000 
 2072.00  0.000 
 2073.00  0.000 
 2074.00  0.000 
 2075.00  0.000 
 2076.00  0.000 
 2077.00  0.000 
 2078.00  0.000 
 2079.00  0.000 
 2080.00  0.000 
 2081.00  0.000 
 2082.00  0.000 
 2083.00  0.000 
 2084.00  0.000 
 2085.00  0.000 
 2086.00  0.000 
 2087.00  0.000 
 2088.00  0.000 
 2089.00  0.000 
 2090.00  0.000 
 2091.00  0.000 
 2092.00  0.000 
 2093.00  0.000 
 2094.00  0.000 
 2095.00  0.000 
 2096.00  0.000 
 2097.00  0.000 
 2098.00  0.000 
 2099.00  0.000 
 2100.00  0.000 
 2101.00  0.000 
 2102.00  0.000 
 2103.00  0.000 
 2104.00  0.000 
 2105.00  0.000 
 2106.00  0.000 
 2107.00  0.000 
 2108.00  0.000 
 2109.00  0.000 
 2110.00  0.000 
 2111.00  0.000 
 2112.00  0.000 
 2113.00  0.000 
 2114.00  0.000 
 2115.00  0.000 
 2116.00  0.000 
 2117.00  0.000 
 2118.00  0.000 
 2119.00  0.000 
 2120.00  0.000 
 2121.00  0.000 
 2122.00  0.000 
 2123.00  0.000 
 2124.00  0.000 
 2125.00  0.000 
 2126.00  0.000 
 2127.00  0.000 
 2128.00  0.000 
 2129.00  0.000 
 2130.00  0.000 
 2131.00  0.000 
 2132.00  0.000 
 2133.00  0.000 
 2134.00  0.000 
 2135.00  0.000 
 2136.00  0.000 
 2137.00  0.000 
 2138.00  0.000 
 2139.00  0.000 
 2140.00  0.000 
 2141.00  0.000 
 2142.00  0.000 
 2143.00  0.000 
 2144.00  0.000 
 2145.00  0.000 
 2146.00  0.000 
 2147.00  0.000 
 2148.00  0.000 
 2149.00  0.000 
 2150.00  0.000 
 2151.00  0.000 
 2152.00  0.000 
 2153.00  0.000 
 2154.00  0.000 
 2155.00  0.000 
 2156.00  0.000 
 2157.00  0.000 
 2158.00  0.000 
 2159.00  0.000 
 2160.00  0.000 
 2161.00  0.000 
 2162.00  0.000 
 2163.00  0.000 
 2164.00  0.000 
 2165.00  0.000 
 2166.00  0.000 
 2167.00  0.000 
 2168.00  0.000 
 2169.00  0.000 
 2170.00  0.000 
 2171.00  0.000 
 2172.00  0.000 
 2173.00  0.000 
 2174.00  0.000 
 2175.00  0.000 
 2176.00  0.000 
 2177.00  0.000 
 2178.00  0.000 
 2179.00  0.000 
 2180.00  0.000 
 2181.00  0.000 
 2182.00  0.000 
 2183.00  0.000 
 2184.00  0.000 
 2185.00  0.000 
 2186.00  0.000 
 2187.00  0.000 
 2188.00  0.000 
 2189.00  0.000 
 2190.00  0.000 
 2191.00  0.000 
 2192.00  0.000 
 2193.00  0.000 
 2194.00  0.000 
 2195.00  0.000 
 2196.00  0.000 
 2197.00  0.000 
 2198.00  0.000 
 2199.00  0.000 
 2200.00  0.000 
 2201.00  0.000 
 2202.00  0.000 
 2203.00  0.000 
 2204.00  0.000 
 2205.00  0.000 
 2206.00  0.000 
 2207.00  0.000 
 2208.00  0.000 
 2209.00  0.000 
 2210.00  0.000 
 2211.00  0.000 
 2212.00  0.000 
 2213.00  0.000 
 2214.00  0.000 
 2215.00  0.000 
 2216.00  0.000 
 2217.00  0.000 
 2218.00  0.000 
 2219.00  0.000 
 2220.00  0.000 
 2221.00  0.000 
 2222.00  0.000 
 2223.00  0.000 
 2224.00  0.000 
 2225.00  0.000 
 2226.00  0.000 
 2227.00  0.000 
 2228.00  0.000 
 2229.00  0.000 
 2230.00  0.000 
 2231.00  0.000 
 2232.00  0.000 
 2233.00  0.000 
 2234.00  0.000 
 2235.00  0.000 
 2236.00  0.000 
 2237.00  0.000 
 2238.00  0.000 
 2239.00  0.000 
 2240.00  0.000 
 2241.00  0.000 
 2242.00  0.000 
 2243.00  0.000 
 2244.00  0.000 
 2245.00  0.000 
 2246.00  0.000 
 2247.00  0.000 
 2248.00  0.000 
 2249.00  0.000 
 2250.00  0.000 
 2251.00  0.000 
 2252.00  0.000 
 2253.00  0.000 
 2254.00  0.000 
 2255.00  0.000 
 2256.00  0.000 
 2257.00  0.000 
 2258.00  0.000 
 2259.00  0.000 
 2260.00  0.000 
 2261.00  0.000 
 2262.00  0.000 
 2263.00  0.000 
 2264.00  0.000 
 2265.00  0.000 
 2266.00  0.000 
 2267.00  0.000 
 2268.00  0.000 
 2269.00  0.000 
 2270.00  0.000 
 2271.00  0.000 
 2272.00  0.000 
 2273.00  0.000 
 2274.00  0.000 
 2275.00  0.000 
 2276.00  0.000 
 2277.00  0.000 
 2278.00  0.000 
 2279.00  0.000 
 2280.00  0.000 
 2281.00  0.000 
 2282.00  0.000 
 2283.00  0.000 
 2284.00  0.000 
 2285.00  0.000 
 2286.00  0.000 
 2287.00  0.000 
 2288.00  0.000 
 2289.00  0.000 
 2290.00  0.000 
 2291.00  0.000 
 2292.00  0.000 
 2293.00  0.000 
 2294.00  0.000 
 2295.00  0.000 
 2296.00  0.000 
 2297.00  0.000 
 2298.00  0.000 
 2299.00  0.000 
 2300.00  0.000 
 2301.00  0.000 
 2302.00  0.000 
 2303.00  0.000 
 2304.00  0.000 
 2305.00  0.000 
 2306.00  0.000 
 2307.00  0.000 
 2308.00  0.000 
 2309.00  0.000 
 2310.00  0.000 
 2311.00  0.000 
 2312.00  0.000 
 2313.00  0.000 
 2314.00  0.000 
 2315.00  0.000 
 2316.00  0.000 
 2317.00  0.000 
 2318.00  0.000 
 2319.00  0.000 
 2320.00  0.000 
 2321.00  0.000 
 2322.00  0.000 
 2323.00  0.000 
 2324.00  0.000 
 2325.00  0.000 
 2326.00  0.000 
 2327.00  0.000 
 2328.00  0.000 
 2329.00  0.000 
 2330.00  0.000 
 2331.00  0.000 
 2332.00  0.000 
 2333.00  0.000 
 2334.00  0.000 
 2335.00  0.000 
 2336.00  0.000 
 2337.00  0.000 
 2338.00  0.000 
 2339.00  0.000 
 2340.00  0.000 
 2341.00  0.000 
 2342.00  0.000 
 2343.00  0.000 
 2344.00  0.000 
 2345.00  0.000 
 2346.00  0.000 
 2347.00  0.000 
 2348.00  0.000 
 2349.00  0.000 
 2350.00  0.000 
 2351.00  0.000 
 2352.00  0.000 
 2353.00  0.000 
 2354.00  0.000 
 2355.00  0.000 
 2356.00  0.000 
 2357.00  0.000 
 2358.00  0.000 
 2359.00  0.000 
 2360.00  0.000 
 2361.00  0.000 
 2362.00  0.000 
 2363.00  0.000 
 2364.00  0.000 
 2365.00  0.000 
 2366.00  0.000 
 2367.00  0.000 
 2368.00  0.000 
 2369.00  0.000 
 2370.00  0.000 
 2371.00  0.000 
 2372.00  0.000 
 2373.00  0.000 
 2374.00  0.000 
 2375.00  0.000 
 2376.00  0.000 
 2377.00  0.000 
 2378.00  0.000 
 2379.00  0.000 
 2380.00  0.000 
 2381.00  0.000 
 2382.00  0.000 
 2383.00  0.000 
 2384.00  0.000 
 2385.00  0.000 
 2386.00  0.000 
 2387.00  0.000 
 2388.00  0.000 
 2389.00  0.000 
 2390.00  0.000 
 2391.00  0.000 
 2392.00  0.000 
 2393.00  0.000 
 2394.00  0.000 
 2395.00  0.000 
 2396.00  0.000 
 2397.00  0.000 
 2398.00  0.000 
 2399.00  0.000 
 2400.00  0.000 
 2401.00  0.000 
 2402.00  0.000 
 2403.00  0.000 
 2404.00  0.000 
 2405.00  0.000 
 2406.00  0.000 
 2407.00  0.000 
 2408.00  0.000 
 2409.00  0.000 
 2410.00  0.000 
 2411.00  0.000 
 2412.00  0.000 
 2413.00  0.000 
 2414.00  0.000 
 2415.00  0.000 
 2416.00  0.000 
 2417.00  0.000 
 2418.00  0.000 
 2419.00  0.000 
 2420.00  0.000 
 2421.00  0.000 
 2422.00  0.000 
 2423.00  0.000 
 2424.00  0.000 
 2425.00  0.000 
 2426.00  0.000 
 2427.00  0.000 
 2428.00  0.000 
 2429.00  0.000 
 2430.00  0.000 
 2431.00  0.000 
 2432.00  0.000 
 2433.00  0.000 
 2434.00  0.000 
 2435.00  0.000 
 2436.00  0.000 
 2437.00  0.000 
 2438.00  0.000 
 2439.00  0.000 
 2440.00  0.000 
 2441.00  0.000 
 2442.00  0.000 
 2443.00  0.000 
 2444.00  0.000 
 2445.00  0.000 
 2446.00  0.000 
 2447.00  0.000 
 2448.00  0.000 
 2449.00  0.000 
 2450.00  0.000 
 2451.00  0.000 
 2452.00  0.000 
 2453.00  0.000 
 2454.00  0.000 
 2455.00  0.000 
 2456.00  0.000 
 2457.00  0.000 
 2458.00  0.000 
 2459.00  0.000 
 2460.00  0.000 
 2461.00  0.000 
 2462.00  0.000 
 2463.00  0.000 
 2464.00  0.000 
 2465.00  0.000 
 2466.00  0.000 
 2467.00  0.000 
 2468.00  0.000 
 2469.00  0.000 
 2470.00  0.000 
 2471.00  0.000 
 2472.00  0.000 
 2473.00  0.000 
 2474.00  0.000 
 2475.00  0.000 
 2476.00  0.000 
 2477.00  0.000 
 2478.00  0.000 
 2479.00  0.000 
 2480.00  0.000 
 2481.00  0.000 
 2482.00  0.000 
 2483.00  0.000 
 2484.00  0.000 
 2485.00  0.000 
 2486.00  0.000 
 2487.00  0.000 
 2488.00  0.000 
 2489.00  0.000 
 2490.00  0.000 
 2491.00  0.000 
 2492.00  0.000 
 2493.00  0.000 
 2494.00  0.000 
 2495.00  0.000 
 2496.00  0.000 
 2497.00  0.000 
 2498.00  0.000 
 2499.00  0.000 
 2500.00  0.000 
 2501.00  0.000 
 2502.00  0.000 
 2503.00  0.000 
 2504.00  0.000 
 2505.00  0.000 
 2506.00  0.000 
 2507.00  0.000 
 2508.00  0.000 
 2509.00  0.000 
 2510.00  0.000 
 2511.00  0.000 
 2512.00  0.000 
 2513.00  0.000 
 2514.00  0.000 
 2515.00  0.000 
 2516.00  0.000 
 2517.00  0.000 
 2518.00  0.000 
 2519.00  0.000 
 2520.00  0.000 
 2521.00  0.000 
 2522.00  0.000 
 2523.00  0.000 
 2524.00  0.000 
 2525.00  0.000 
 2526.00  0.000 
 2527.00  0.000 
 2528.00  0.000 
 2529.00  0.000 
 2530.00  0.000 
 2531.00  0.000 
 2532.00  0.000 
 2533.00  0.000 
 2534.00  0.000 
 2535.00  0.000 
 2536.00  0.000 
 2537.00  0.000 
 2538.00  0.000 
 2539.00  0.000 
 2540.00  0.000 
 2541.00  0.000 
 2542.00  0.000 
 2543.00  0.000 
 2544.00  0.000 
 2545.00  0.000 
 2546.00  0.000 
 2547.00  0.000 
 2548.00  0.000 
 2549.00  0.000 
 2550.00  0.000 
 2551.00  0.000 
 2552.00  0.000 
 2553.00  0.000 
 2554.00  0.000 
 2555.00  0.000 
 2556.00  0.000 
 2557.00  0.000 
 2558.00  0.000 
 2559.00  0.000 
 2560.00  0.000 
 2561.00  0.000 
 2562.00  0.000 
 2563.00  0.000 
 2564.00  0.000 
 2565.00  0.000 
 2566.00  0.000 
 2567.00  0.000 
 2568.00  0.000 
 2569.00  0.000 
 2570.00  0.000 
 2571.00  0.000 
 2572.00  0.000 
 2573.00  0.000 
 2574.00  0.000 
 2575.00  0.000 
 2576.00  0.000 
 2577.00  0.000 
 2578.00  0.000 
 2579.00  0.000 
 2580.00  0.000 
 2581.00  0.000 
 2582.00  0.000 
 2583.00  0.000 
 2584.00  0.000 
 2585.00  0.000 
 2586.00  0.000 
 2587.00  0.000 
 2588.00  0.000 
 2589.00  0.000 
 2590.00  0.000 
 2591.00  0.000 
 2592.00  0.000 
 2593.00  0.000 
 2594.00  0.000 
 2595.00  0.000 
 2596.00  0.000 
 2597.00  0.000 
 2598.00  0.000 
 2599.00  0.000 
 2600.00  0.000 
 2601.00  0.000 
 2602.00  0.000 
 2603.00  0.000 
 2604.00  0.000 
 2605.00  0.000 
 2606.00  0.000 
 2607.00  0.000 
 2608.00  0.000 
 2609.00  0.000 
 2610.00  0.000 
 2611.00  0.000 
 2612.00  0.000 
 2613.00  0.000 
 2614.00  0.000 
 2615.00  0.000 
 2616.00  0.000 
 2617.00  0.000 
 2618.00  0.000 
 2619.00  0.000 
 2620.00  0.000 
 2621.00  0.000 
 2622.00  0.000 
 2623.00  0.000 
 2624.00  0.000 
 2625.00  0.000 
 2626.00  0.000 
 2627.00  0.000 
 2628.00  0.000 
 2629.00  0.000 
 2630.00  0.000 
 2631.00  0.000 
 2632.00  0.000 
 2633.00  0.000 
 2634.00  0.000 
 2635.00  0.000 
 2636.00  0.000 
 2637.00  0.000 
 2638.00  0.000 
 2639.00  0.000 
 2640.00  0.000 
 2641.00  0.000 
 2642.00  0.000 
 2643.00  0.000 
 2644.00  0.000 
 2645.00  0.000 
 2646.00  0.000 
 2647.00  0.000 
 2648.00  0.000 
 2649.00  0.000 
 2650.00  0.000 
 2651.00  0.000 
 2652.00  0.000 
 2653.00  0.000 
 2654.00  0.000 
 2655.00  0.000 
 2656.00  0.000 
 2657.00  0.000 
 2658.00  0.000 
 2659.00  0.000 
 2660.00  0.000 
 2661.00  0.000 
 2662.00  0.000 
 2663.00  0.000 
 2664.00  0.000 
 2665.00  0.000 
 2666.00  0.000 
 2667.00  0.000 
 2668.00  0.000 
 2669.00  0.000 
 2670.00  0.000 
 2671.00  0.000 
 2672.00  0.000 
 2673.00  0.000 
 2674.00  0.000 
 2675.00  0.000 
 2676.00  0.000 
 2677.00  0.000 
 2678.00  0.000 
 2679.00  0.000 
 2680.00  0.000 
 2681.00  0.000 
 2682.00  0.000 
 2683.00  0.000 
 2684.00  0.000 
 2685.00  0.000 
 2686.00  0.000 
 2687.00  0.000 
 2688.00  0.000 
 2689.00  0.000 
 2690.00  0.000 
 2691.00  0.000 
 2692.00  0.000 
 2693.00  0.000 
 2694.00  0.000 
 2695.00  0.000 
 2696.00  0.000 
 2697.00  0.000 
 2698.00  0.000 
 2699.00  0.000 
 2700.00  0.000 
 2701.00  0.000 
 2702.00  0.000 
 2703.00  0.000 
 2704.00  0.000 
 2705.00  0.000 
 2706.00  0.000 
 2707.00  0.000 
 2708.00  0.000 
 2709.00  0.000 
 2710.00  0.000 
 2711.00  0.000 
 2712.00  0.000 
 2713.00  0.000 
 2714.00  0.000 
 2715.00  0.000 
 2716.00  0.000 
 2717.00  0.000 
 2718.00  0.000 
 2719.00  0.000 
 2720.00  0.000 
 2721.00  0.000 
 2722.00  0.000 
 2723.00  0.000 
 2724.00  0.000 
 2725.00  0.000 
 2726.00  0.000 
 2727.00  0.000 
 2728.00  0.000 
 2729.00  0.000 
 2730.00  0.000 
 2731.00  0.000 
 2732.00  0.000 
 2733.00  0.000 
 2734.00  0.000 
 2735.00  0.000 
 2736.00  0.000 
 2737.00  0.000 
 2738.00  0.000 
 2739.00  0.000 
 2740.00  0.000 
 2741.00  0.000 
 2742.00  0.000 
 2743.00  0.000 
 2744.00  0.000 
 2745.00  0.000 
 2746.00  0.000 
 2747.00  0.000 
 2748.00  0.000 
 2749.00  0.000 
 2750.00  0.000 
 2751.00  0.000 
 2752.00  0.000 
 2753.00  0.000 
 2754.00  0.000 
 2755.00  0.000 
 2756.00  0.000 
 2757.00  0.000 
 2758.00  0.000 
 2759.00  0.000 
 2760.00  0.000 
 2761.00  0.000 
 2762.00  0.000 
 2763.00  0.000 
 2764.00  0.000 
 2765.00  0.000 
 2766.00  0.000 
 2767.00  0.000 
 2768.00  0.000 
 2769.00  0.000 
 2770.00  0.000 
 2771.00  0.000 
 2772.00  0.000 
 2773.00  0.000 
 2774.00  0.000 
 2775.00  0.000 
 2776.00  0.000 
 2777.00  0.000 
 2778.00  0.000 
 2779.00  0.000 
 2780.00  0.000 
 2781.00  0.000 
 2782.00  0.000 
 2783.00  0.000 
 2784.00  0.000 
 2785.00  0.000 
 2786.00  0.000 
 2787.00  0.000 
 2788.00  0.000 
 2789.00  0.000 
 2790.00  0.000 
 2791.00  0.000 
 2792.00  0.000 
 2793.00  0.000 
 2794.00  0.000 
 2795.00  0.000 
 2796.00  0.000 
 2797.00  0.000 
 2798.00  0.000 
 2799.00  0.000 
 2800.00  0.000 
 2801.00  0.000 
 2802.00  0.000 
 2803.00  0.000 
 2804.00  0.000 
 2805.00  0.000 
 2806.00  0.000 
 2807.00  0.000 
 2808.00  0.000 
 2809.00  0.000 
 2810.00  0.000 
 2811.00  0.000 
 2812.00  0.000 
 2813.00  0.000 
 2814.00  0.000 
 2815.00  0.000 
 2816.00  0.000 
 2817.00  0.000 
 2818.00  0.000 
 2819.00  0.000 
 2820.00  0.000 
 2821.00  0.000 
 2822.00  0.000 
 2823.00  0.000 
 2824.00  0.000 
 2825.00  0.000 
 2826.00  0.000 
 2827.00  0.000 
 2828.00  0.000 
 2829.00  0.000 
 2830.00  0.000 
 2831.00  0.000 
 2832.00  0.000 
 2833.00  0.000 
 2834.00  0.000 
 2835.00  0.000 
 2836.00  0.000 
 2837.00  0.000 
 2838.00  0.000 
 2839.00  0.000 
 2840.00  0.000 
 2841.00  0.000 
 2842.00  0.000 
 2843.00  0.000 
 2844.00  0.000 
 2845.00  0.000 
 2846.00  0.000 
 2847.00  0.000 
 2848.00  0.000 
 2849.00  0.000 
 2850.00  0.000 
 2851.00  0.000 
 2852.00  0.000 
 2853.00  0.000 
 2854.00  0.000 
 2855.00  0.000 
 2856.00  0.000 
 2857.00  0.000 
 2858.00  0.000 
 2859.00  0.000 
 2860.00  0.000 
 2861.00  0.000 
 2862.00  0.000 
 2863.00  0.000 
 2864.00  0.000 
 2865.00  0.000 
 2866.00  0.000 
 2867.00  0.000 
 2868.00  0.000 
 2869.00  0.000 
 2870.00  0.000 
 2871.00  0.000 
 2872.00  0.000 
 2873.00  0.000 
 2874.00  0.000 
 2875.00  0.000 
 2876.00  0.000 
 2877.00  0.000 
 2878.00  0.000 
 2879.00  0.000 
 2880.00  0.000 
 2881.00  0.000 
 2882.00  0.000 
 2883.00  0.000 
 2884.00  0.000 
 2885.00  0.000 
 2886.00  0.000 
 2887.00  0.000 
 2888.00  0.000 
 2889.00  0.000 
 2890.00  0.000 
 2891.00  0.000 
 2892.00  0.000 
 2893.00  0.000 
 2894.00  0.000 
 2895.00  0.000 
 2896.00  0.000 
 2897.00  0.000 
 2898.00  0.000 
 2899.00  0.000 
 2900.00  0.000 
 2901.00  0.000 
 2902.00  0.000 
 2903.00  0.000 
 2904.00  0.000 
 2905.00  0.000 
 2906.00  0.000 
 2907.00  0.000 
 2908.00  0.000 
 2909.00  0.000 
 2910.00  0.000 
 2911.00  0.000 
 2912.00  0.000 
 2913.00  0.000 
 2914.00  0.000 
 2915.00  0.000 
 2916.00  0.000 
 2917.00  0.000 
 2918.00  0.000 
 2919.00  0.001 
 2920.00  0.001 
 2921.00  0.001 
 2922.00  0.001 
 2923.00  0.001 
 2924.00  0.001 
 2925.00  0.001 
 2926.00  0.001 
 2927.00  0.001 
 2928.00  0.001 
 2929.00  0.001 
 2930.00  0.002 
 2931.00  0.002 
 2932.00  0.002 
 2933.00  0.002 
 2934.00  0.003 
 2935.00  0.003 
 2936.00  0.004 
 2937.00  0.005 
 2938.00  0.006 
 2939.00  0.007 
 2940.00  0.009 
 2941.00  0.010 
 2942.00  0.011 
 2943.00  0.012 
 2944.00  0.011 
 2945.00  0.010 
 2946.00  0.009 
 2947.00  0.007 
 2948.00  0.006 
 2949.00  0.005 
 2950.00  0.004 
 2951.00  0.003 
 2952.00  0.003 
 2953.00  0.002 
 2954.00  0.002 
 2955.00  0.002 
 2956.00  0.002 
 2957.00  0.001 
 2958.00  0.001 
 2959.00  0.001 
 2960.00  0.001 
 2961.00  0.001 
 2962.00  0.001 
 2963.00  0.001 
 2964.00  0.001 
 2965.00  0.001 
 2966.00  0.001 
 2967.00  0.001 
 2968.00  0.000 
 2969.00  0.000 
 2970.00  0.000 
 2971.00  0.000 
 2972.00  0.000 
 2973.00  0.000 
 2974.00  0.000 
 2975.00  0.000 
 2976.00  0.000 
 2977.00  0.000 
 2978.00  0.000 
 2979.00  0.000 
 2980.00  0.000 
 2981.00  0.000 
 2982.00  0.000 
 2983.00  0.000 
 2984.00  0.000 
 2985.00  0.000 
 2986.00  0.000 
 2987.00  0.000 
 2988.00  0.000 
 2989.00  0.000 
 2990.00  0.000 
 2991.00  0.000 
 2992.00  0.000 
 2993.00  0.000 
 2994.00  0.000 
 2995.00  0.000 
 2996.00  0.000 
 2997.00  0.000 
 2998.00  0.000 
 2999.00  0.000 
 3000.00  0.000 
 3001.00  0.000 
 3002.00  0.000 
 3003.00  0.000 
 3004.00  0.000 
 3005.00  0.000 
 3006.00  0.000 
 3007.00  0.000 
 3008.00  0.000 
 3009.00  0.000 
 3010.00  0.000 
 3011.00  0.000 
 3012.00  0.000 
 3013.00  0.000 
 3014.00  0.000 
 3015.00  0.000 
 3016.00  0.000 
 3017.00  0.000 
 3018.00  0.000 
 3019.00  0.000 
 3020.00  0.000 
 3021.00  0.000 
 3022.00  0.000 
 3023.00  0.000 
 3024.00  0.000 
 3025.00  0.000 
 3026.00  0.000 
 3027.00  0.000 
 3028.00  0.000 
 3029.00  0.000 
 3030.00  0.000 
 3031.00  0.000 
 3032.00  0.000 
 3033.00  0.000 
 3034.00  0.000 
 3035.00  0.000 
 3036.00  0.000 
 3037.00  0.000 
 3038.00  0.000 
 3039.00  0.000 
 3040.00  0.000 
 3041.00  0.000 
 3042.00  0.000 
 3043.00  0.000 
 3044.00  0.000 
 3045.00  0.000 
 3046.00  0.000 
 3047.00  0.000 
 3048.00  0.000 
 3049.00  0.000 
 3050.00  0.000 
 3051.00  0.000 
 3052.00  0.000 
 3053.00  0.000 
 3054.00  0.000 
 3055.00  0.000 
 3056.00  0.000 
 3057.00  0.000 
 3058.00  0.000 
 3059.00  0.000 
 3060.00  0.000 
 3061.00  0.000 
 3062.00  0.000 
 3063.00  0.000 
 3064.00  0.000 
 3065.00  0.000 
 3066.00  0.000 
 3067.00  0.000 
 3068.00  0.000 
 3069.00  0.000 
 3070.00  0.000 
 3071.00  0.000 
 3072.00  0.000 
 3073.00  0.000 
 3074.00  0.000 
 3075.00  0.000 
 3076.00  0.000 
 3077.00  0.000 
 3078.00  0.000 
 3079.00  0.000 
 3080.00  0.000 
 3081.00  0.000 
 3082.00  0.000 
 3083.00  0.000 
 3084.00  0.000 
 3085.00  0.000 
 3086.00  0.000 
 3087.00  0.000 
 3088.00  0.000 
 3089.00  0.000 
 3090.00  0.000 
 3091.00  0.000 
 3092.00  0.000 
 3093.00  0.000 
 3094.00  0.000 
 3095.00  0.000 
 3096.00  0.000 
 3097.00  0.000 
 3098.00  0.000 
 3099.00  0.000 
 3100.00  0.000 
