# v / cm^-1  DOS / states (q-point cm^-1)^-1
  -110.000    0.0959
  -109.000    0.0968
  -108.000    0.0977
  -107.000    0.0987
  -106.000    0.0997
  -105.000    0.1006
  -104.000    0.1016
  -103.000    0.1026
  -102.000    0.1037
  -101.000    0.1047
  -100.000    0.1058
   -99.000    0.1069
   -98.000    0.1080
   -97.000    0.1092
   -96.000    0.1103
   -95.000    0.1115
   -94.000    0.1127
   -93.000    0.1139
   -92.000    0.1152
   -91.000    0.1165
   -90.000    0.1178
   -89.000    0.1191
   -88.000    0.1205
   -87.000    0.1219
   -86.000    0.1233
   -85.000    0.1247
   -84.000    0.1262
   -83.000    0.1277
   -82.000    0.1293
   -81.000    0.1309
   -80.000    0.1325
   -79.000    0.1342
   -78.000    0.1358
   -77.000    0.1376
   -76.000    0.1394
   -75.000    0.1412
   -74.000    0.1430
   -73.000    0.1450
   -72.000    0.1469
   -71.000    0.1489
   -70.000    0.1510
   -69.000    0.1531
   -68.000    0.1553
   -67.000    0.1575
   -66.000    0.1598
   -65.000    0.1621
   -64.000    0.1645
   -63.000    0.1670
   -62.000    0.1695
   -61.000    0.1722
   -60.000    0.1749
   -59.000    0.1776
   -58.000    0.1805
   -57.000    0.1834
   -56.000    0.1865
   -55.000    0.1896
   -54.000    0.1928
   -53.000    0.1962
   -52.000    0.1996
   -51.000    0.2031
   -50.000    0.2068
   -49.000    0.2106
   -48.000    0.2145
   -47.000    0.2186
   -46.000    0.2228
   -45.000    0.2272
   -44.000    0.2317
   -43.000    0.2364
   -42.000    0.2412
   -41.000    0.2463
   -40.000    0.2516
   -39.000    0.2570
   -38.000    0.2627
   -37.000    0.2687
   -36.000    0.2749
   -35.000    0.2813
   -34.000    0.2881
   -33.000    0.2952
   -32.000    0.3026
   -31.000    0.3103
   -30.000    0.3184
   -29.000    0.3269
   -28.000    0.3359
   -27.000    0.3453
   -26.000    0.3553
   -25.000    0.3657
   -24.000    0.3768
   -23.000    0.3885
   -22.000    0.4009
   -21.000    0.4141
   -20.000    0.4281
   -19.000    0.4430
   -18.000    0.4588
   -17.000    0.4758
   -16.000    0.4941
   -15.000    0.5136
   -14.000    0.5347
   -13.000    0.5574
   -12.000    0.5820
   -11.000    0.6087
   -10.000    0.6379
    -9.000    0.6697
    -8.000    0.7047
    -7.000    0.7433
    -6.000    0.7861
    -5.000    0.8338
    -4.000    0.8873
    -3.000    0.9476
    -2.000    1.0161
    -1.000    1.0945
     0.000    1.1850
     1.000    1.2902
     2.000    1.4132
     3.000    1.5578
     4.000    1.7277
     5.000    1.9263
     6.000    2.1557
     7.000    2.4168
     8.000    2.7103
     9.000    3.0374
    10.000    3.4011
    11.000    3.8053
    12.000    4.2530
    13.000    4.7436
    14.000    5.2695
    15.000    5.8143
    16.000    6.3567
    17.000    6.8837
    18.000    7.4009
    19.000    7.9255
    20.000    8.4610
    21.000    8.9735
    22.000    9.3949
    23.000    9.6610
    24.000    9.7554
    25.000    9.7195
    26.000    9.6262
    27.000    9.5511
    28.000    9.5557
    29.000    9.6801
    30.000    9.9459
    31.000   10.3608
    32.000   10.9132
    33.000   11.5533
    34.000   12.1679
    35.000   12.5817
    36.000   12.6155
    37.000   12.1850
    38.000   11.3596
    39.000   10.3197
    40.000    9.2507
    41.000    8.2739
    42.000    7.4442
    43.000    6.7756
    44.000    6.2621
    45.000    5.8895
    46.000    5.6410
    47.000    5.5013
    48.000    5.4571
    49.000    5.4960
    50.000    5.6023
    51.000    5.7525
    52.000    5.9141
    53.000    6.0497
    54.000    6.1251
    55.000    6.1185
    56.000    6.0283
    57.000    5.8758
    58.000    5.6992
    59.000    5.5397
    60.000    5.4307
    61.000    5.3926
    62.000    5.4339
    63.000    5.5529
    64.000    5.7398
    65.000    5.9793
    66.000    6.2562
    67.000    6.5618
    68.000    6.8934
    69.000    7.2502
    70.000    7.6342
    71.000    8.0560
    72.000    8.5414
    73.000    9.1281
    74.000    9.8508
    75.000   10.7208
    76.000   11.7103
    77.000   12.7392
    78.000   13.6601
    79.000   14.2682
    80.000   14.3752
    81.000   13.9328
    82.000   13.0918
    83.000   12.1038
    84.000   11.1652
    85.000   10.3502
    86.000    9.6436
    87.000    9.0036
    88.000    8.4036
    89.000    7.8404
    90.000    7.3207
    91.000    6.8507
    92.000    6.4358
    93.000    6.0801
    94.000    5.7842
    95.000    5.5422
    96.000    5.3420
    97.000    5.1678
    98.000    5.0060
    99.000    4.8512
   100.000    4.7057
   101.000    4.5763
   102.000    4.4722
   103.000    4.4047
   104.000    4.3851
   105.000    4.4231
   106.000    4.5240
   107.000    4.6869
   108.000    4.9028
   109.000    5.1547
   110.000    5.4203
   111.000    5.6776
   112.000    5.9109
   113.000    6.1169
   114.000    6.3041
   115.000    6.4884
   116.000    6.6848
   117.000    6.9001
   118.000    7.1301
   119.000    7.3642
   120.000    7.5885
   121.000    7.7841
   122.000    7.9277
   123.000    8.0009
   124.000    8.0015
   125.000    7.9479
   126.000    7.8733
   127.000    7.8106
   128.000    7.7789
   129.000    7.7779
   130.000    7.7934
   131.000    7.8039
   132.000    7.7907
   133.000    7.7483
   134.000    7.6914
   135.000    7.6498
   136.000    7.6547
   137.000    7.7236
   138.000    7.8508
   139.000    8.0070
   140.000    8.1502
   141.000    8.2439
   142.000    8.2712
   143.000    8.2366
   144.000    8.1602
   145.000    8.0708
   146.000    7.9947
   147.000    7.9445
   148.000    7.9150
   149.000    7.8932
   150.000    7.8748
   151.000    7.8681
   152.000    7.8848
   153.000    7.9316
   154.000    8.0094
   155.000    8.1134
   156.000    8.2347
   157.000    8.3617
   158.000    8.4804
   159.000    8.5747
   160.000    8.6282
   161.000    8.6332
   162.000    8.5998
   163.000    8.5543
   164.000    8.5284
   165.000    8.5454
   166.000    8.6083
   167.000    8.6958
   168.000    8.7749
   169.000    8.8195
   170.000    8.8140
   171.000    8.7459
   172.000    8.6098
   173.000    8.4206
   174.000    8.2140
   175.000    8.0304
   176.000    7.9004
   177.000    7.8376
   178.000    7.8299
   179.000    7.8378
   180.000    7.8115
   181.000    7.7180
   182.000    7.5540
   183.000    7.3423
   184.000    7.1203
   185.000    6.9250
   186.000    6.7813
   187.000    6.6987
   188.000    6.6728
   189.000    6.6882
   190.000    6.7230
   191.000    6.7577
   192.000    6.7820
   193.000    6.7953
   194.000    6.8036
   195.000    6.8173
   196.000    6.8505
   197.000    6.9165
   198.000    7.0201
   199.000    7.1546
   200.000    7.3078
   201.000    7.4711
   202.000    7.6456
   203.000    7.8436
   204.000    8.0811
   205.000    8.3629
   206.000    8.6700
   207.000    8.9624
   208.000    9.1964
   209.000    9.3448
   210.000    9.4020
   211.000    9.3745
   212.000    9.2720
   213.000    9.1074
   214.000    8.9072
   215.000    8.7166
   216.000    8.5844
   217.000    8.5346
   218.000    8.5567
   219.000    8.6230
   220.000    8.7096
   221.000    8.8041
   222.000    8.9034
   223.000    9.0109
   224.000    9.1323
   225.000    9.2695
   226.000    9.4170
   227.000    9.5668
   228.000    9.7137
   229.000    9.8584
   230.000   10.0085
   231.000   10.1712
   232.000   10.3377
   233.000   10.4726
   234.000   10.5248
   235.000   10.4562
   236.000   10.2705
   237.000   10.0111
   238.000    9.7307
   239.000    9.4633
   240.000    9.2169
   241.000    8.9825
   242.000    8.7441
   243.000    8.4838
   244.000    8.1856
   245.000    7.8405
   246.000    7.4531
   247.000    7.0480
   248.000    6.6706
   249.000    6.3724
   250.000    6.1876
   251.000    6.1141
   252.000    6.1100
   253.000    6.1109
   254.000    6.0644
   255.000    5.9505
   256.000    5.7723
   257.000    5.5376
   258.000    5.2557
   259.000    4.9419
   260.000    4.6196
   261.000    4.3177
   262.000    4.0643
   263.000    3.8817
   264.000    3.7849
   265.000    3.7828
   266.000    3.8814
   267.000    4.0850
   268.000    4.3935
   269.000    4.7956
   270.000    5.2618
   271.000    5.7489
   272.000    6.2215
   273.000    6.6652
   274.000    7.0684
   275.000    7.3972
   276.000    7.6021
   277.000    7.6461
   278.000    7.5145
   279.000    7.2015
   280.000    6.7127
   281.000    6.0908
   282.000    5.4181
   283.000    4.7803
   284.000    4.2323
   285.000    3.7925
   286.000    3.4567
   287.000    3.2114
   288.000    3.0423
   289.000    2.9373
   290.000    2.8874
   291.000    2.8865
   292.000    2.9309
   293.000    3.0181
   294.000    3.1462
   295.000    3.3123
   296.000    3.5114
   297.000    3.7365
   298.000    3.9799
   299.000    4.2376
   300.000    4.5166
   301.000    4.8401
   302.000    5.2436
   303.000    5.7574
   304.000    6.3815
   305.000    7.0703
   306.000    7.7382
   307.000    8.2934
   308.000    8.6750
   309.000    8.8608
   310.000    8.8514
   311.000    8.6578
   312.000    8.3074
   313.000    7.8572
   314.000    7.3888
   315.000    6.9863
   316.000    6.7139
   317.000    6.6069
   318.000    6.6769
   319.000    6.9187
   320.000    7.3123
   321.000    7.8201
   322.000    8.3866
   323.000    8.9542
   324.000    9.4839
   325.000    9.9643
   326.000   10.3976
   327.000   10.7736
   328.000   11.0499
   329.000   11.1558
   330.000   11.0234
   331.000   10.6340
   332.000   10.0388
   333.000    9.3272
   334.000    8.5770
   335.000    7.8357
   336.000    7.1306
   337.000    6.4789
   338.000    5.8908
   339.000    5.3677
   340.000    4.9042
   341.000    4.4952
   342.000    4.1424
   343.000    3.8538
   344.000    3.6360
   345.000    3.4870
   346.000    3.3949
   347.000    3.3395
   348.000    3.2950
   349.000    3.2324
   350.000    3.1286
   351.000    2.9782
   352.000    2.7995
   353.000    2.6229
   354.000    2.4747
   355.000    2.3693
   356.000    2.3114
   357.000    2.3007
   358.000    2.3330
   359.000    2.3979
   360.000    2.4758
   361.000    2.5395
   362.000    2.5656
   363.000    2.5482
   364.000    2.4991
   365.000    2.4364
   366.000    2.3755
   367.000    2.3256
   368.000    2.2916
   369.000    2.2760
   370.000    2.2804
   371.000    2.3064
   372.000    2.3561
   373.000    2.4326
   374.000    2.5403
   375.000    2.6852
   376.000    2.8744
   377.000    3.1158
   378.000    3.4153
   379.000    3.7736
   380.000    4.1816
   381.000    4.6183
   382.000    5.0518
   383.000    5.4463
   384.000    5.7723
   385.000    6.0181
   386.000    6.1932
   387.000    6.3239
   388.000    6.4457
   389.000    6.5984
   390.000    6.8247
   391.000    7.1714
   392.000    7.6905
   393.000    8.4380
   394.000    9.4692
   395.000   10.8258
   396.000   12.5084
   397.000   14.4304
   398.000   16.3854
   399.000   18.1016
   400.000   19.3988
   401.000   20.2740
   402.000   20.7942
   403.000   20.9583
   404.000   20.6765
   405.000   19.8459
   406.000   18.4659
   407.000   16.7002
   408.000   14.8100
   409.000   13.0269
   410.000   11.4816
   411.000   10.2124
   412.000    9.2059
   413.000    8.4300
   414.000    7.8471
   415.000    7.4158
   416.000    7.0877
   417.000    6.8152
   418.000    6.5683
   419.000    6.3451
   420.000    6.1617
   421.000    6.0332
   422.000    5.9607
   423.000    5.9300
   424.000    5.9188
   425.000    5.9084
   426.000    5.8901
   427.000    5.8615
   428.000    5.8201
   429.000    5.7618
   430.000    5.6885
   431.000    5.6159
   432.000    5.5749
   433.000    5.5990
   434.000    5.7026
   435.000    5.8620
   436.000    6.0140
   437.000    6.0777
   438.000    5.9904
   439.000    5.7342
   440.000    5.3380
   441.000    4.8617
   442.000    4.3744
   443.000    3.9323
   444.000    3.5658
   445.000    3.2827
   446.000    3.0786
   447.000    2.9453
   448.000    2.8758
   449.000    2.8656
   450.000    2.9142
   451.000    3.0240
   452.000    3.2010
   453.000    3.4528
   454.000    3.7851
   455.000    4.1933
   456.000    4.6499
   457.000    5.0936
   458.000    5.4429
   459.000    5.6444
   460.000    5.7181
   461.000    5.7450
   462.000    5.8112
   463.000    5.9705
   464.000    6.2427
   465.000    6.6305
   466.000    7.1315
   467.000    7.7387
   468.000    8.4209
   469.000    9.0948
   470.000    9.6315
   471.000    9.9333
   472.000   10.0241
   473.000   10.0496
   474.000   10.1809
   475.000   10.5116
   476.000   10.9994
   477.000   11.4624
   478.000   11.6535
   479.000   11.4118
   480.000   10.7750
   481.000    9.9366
   482.000    9.1112
   483.000    8.4329
   484.000    7.9301
   485.000    7.5545
   486.000    7.2302
   487.000    6.8925
   488.000    6.4996
   489.000    6.0297
   490.000    5.4839
   491.000    4.8931
   492.000    4.3085
   493.000    3.7759
   494.000    3.3192
   495.000    2.9416
   496.000    2.6350
   497.000    2.3876
   498.000    2.1880
   499.000    2.0268
   500.000    1.8963
   501.000    1.7908
   502.000    1.7060
   503.000    1.6385
   504.000    1.5858
   505.000    1.5461
   506.000    1.5182
   507.000    1.5012
   508.000    1.4946
   509.000    1.4983
   510.000    1.5123
   511.000    1.5373
   512.000    1.5741
   513.000    1.6240
   514.000    1.6887
   515.000    1.7707
   516.000    1.8732
   517.000    2.0006
   518.000    2.1586
   519.000    2.3548
   520.000    2.5995
   521.000    2.9060
   522.000    3.2922
   523.000    3.7805
   524.000    4.3974
   525.000    5.1691
   526.000    6.1084
   527.000    7.1855
   528.000    8.2842
   529.000    9.1752
   530.000    9.5865
   531.000    9.3857
   532.000    8.6972
   533.000    7.7972
   534.000    6.9294
   535.000    6.2273
   536.000    5.7360
   537.000    5.4564
   538.000    5.3716
   539.000    5.4560
   540.000    5.6725
   541.000    5.9710
   542.000    6.2956
   543.000    6.5992
   544.000    6.8521
   545.000    7.0367
   546.000    7.1349
   547.000    7.1234
   548.000    6.9817
   549.000    6.7081
   550.000    6.3261
   551.000    5.8823
   552.000    5.4347
   553.000    5.0311
   554.000    4.6931
   555.000    4.4187
   556.000    4.1948
   557.000    4.0075
   558.000    3.8473
   559.000    3.7112
   560.000    3.6021
   561.000    3.5267
   562.000    3.4935
   563.000    3.5117
   564.000    3.5912
   565.000    3.7432
   566.000    3.9787
   567.000    4.3050
   568.000    4.7191
   569.000    5.2020
   570.000    5.7236
   571.000    6.2671
   572.000    6.8482
   573.000    7.4894
   574.000    8.1663
   575.000    8.7907
   576.000    9.2755
   577.000    9.6310
   578.000    9.9687
   579.000   10.3932
   580.000   10.9029
   581.000   11.3863
   582.000   11.7048
   583.000   11.7810
   584.000   11.6055
   585.000   11.1894
   586.000   10.5339
   587.000    9.6531
   588.000    8.6262
   589.000    7.5860
   590.000    6.6503
   591.000    5.8800
   592.000    5.2874
   593.000    4.8608
   594.000    4.5827
   595.000    4.4384
   596.000    4.4175
   597.000    4.5125
   598.000    4.7123
   599.000    4.9947
   600.000    5.3217
   601.000    5.6425
   602.000    5.9055
   603.000    6.0671
   604.000    6.0994
   605.000    5.9981
   606.000    5.7941
   607.000    5.5526
   608.000    5.3518
   609.000    5.2555
   610.000    5.3044
   611.000    5.5239
   612.000    5.9337
   613.000    6.5494
   614.000    7.3716
   615.000    8.3560
   616.000    9.3686
   617.000   10.1649
   618.000   10.4749
   619.000   10.1908
   620.000    9.4639
   621.000    8.5783
   622.000    7.7699
   623.000    7.1645
   624.000    6.8075
   625.000    6.7086
   626.000    6.8683
   627.000    7.2839
   628.000    7.9371
   629.000    8.7600
   630.000    9.5892
   631.000   10.1567
   632.000   10.1979
   633.000    9.6428
   634.000    8.6727
   635.000    7.5648
   636.000    6.5243
   637.000    5.6436
   638.000    4.9394
   639.000    4.3947
   640.000    3.9837
   641.000    3.6825
   642.000    3.4720
   643.000    3.3392
   644.000    3.2757
   645.000    3.2781
   646.000    3.3473
   647.000    3.4880
   648.000    3.7091
   649.000    4.0226
   650.000    4.4404
   651.000    4.9688
   652.000    5.5984
   653.000    6.2951
   654.000    7.0003
   655.000    7.6406
   656.000    8.1362
   657.000    8.4070
   658.000    8.3962
   659.000    8.1110
   660.000    7.6353
   661.000    7.0829
   662.000    6.5358
   663.000    6.0279
   664.000    5.5706
   665.000    5.1782
   666.000    4.8727
   667.000    4.6734
   668.000    4.5918
   669.000    4.6340
   670.000    4.8057
   671.000    5.1154
   672.000    5.5719
   673.000    6.1768
   674.000    6.9095
   675.000    7.7136
   676.000    8.5009
   677.000    9.1855
   678.000    9.7188
   679.000   10.0903
   680.000   10.3077
   681.000   10.3845
   682.000   10.3276
   683.000   10.1203
   684.000    9.7335
   685.000    9.1808
   686.000    8.5502
   687.000    7.9683
   688.000    7.5399
   689.000    7.3240
   690.000    7.3449
   691.000    7.6077
   692.000    8.1028
   693.000    8.7983
   694.000    9.6290
   695.000   10.5021
   696.000   11.3245
   697.000   12.0328
   698.000   12.5945
   699.000   12.9705
   700.000   13.0904
   701.000   12.8868
   702.000   12.3665
   703.000   11.6497
   704.000   10.9296
   705.000   10.3812
   706.000   10.0967
   707.000   10.0745
   708.000   10.2386
   709.000   10.4739
   710.000   10.6708
   711.000   10.7487
   712.000   10.6615
   713.000   10.4144
   714.000   10.0773
   715.000    9.7425
   716.000    9.4436
   717.000    9.1134
   718.000    8.6390
   719.000    7.9772
   720.000    7.2012
   721.000    6.4339
   722.000    5.7666
   723.000    5.2382
   724.000    4.8530
   725.000    4.6018
   726.000    4.4742
   727.000    4.4648
   728.000    4.5746
   729.000    4.8116
   730.000    5.1894
   731.000    5.7223
   732.000    6.4149
   733.000    7.2409
   734.000    8.1184
   735.000    8.9018
   736.000    9.4149
   737.000    9.5235
   738.000    9.2045
   739.000    8.5542
   740.000    7.7333
   741.000    6.8976
   742.000    6.1581
   743.000    5.5710
   744.000    5.1522
   745.000    4.8977
   746.000    4.7999
   747.000    4.8552
   748.000    5.0675
   749.000    5.4464
   750.000    6.0007
   751.000    6.7237
   752.000    7.5681
   753.000    8.4197
   754.000    9.0961
   755.000    9.3986
   756.000    9.2104
   757.000    8.5713
   758.000    7.6532
   759.000    6.6584
   760.000    5.7336
   761.000    4.9474
   762.000    4.3123
   763.000    3.8133
   764.000    3.4278
   765.000    3.1340
   766.000    2.9141
   767.000    2.7548
   768.000    2.6465
   769.000    2.5829
   770.000    2.5605
   771.000    2.5784
   772.000    2.6378
   773.000    2.7427
   774.000    2.8996
   775.000    3.1188
   776.000    3.4144
   777.000    3.8052
   778.000    4.3143
   779.000    4.9657
   780.000    5.7743
   781.000    6.7235
   782.000    7.7298
   783.000    8.6158
   784.000    9.1457
   785.000    9.1440
   786.000    8.6122
   787.000    7.7269
   788.000    6.7234
   789.000    5.7777
   790.000    4.9722
   791.000    4.3228
   792.000    3.8141
   793.000    3.4216
   794.000    3.1219
   795.000    2.8956
   796.000    2.7277
   797.000    2.6070
   798.000    2.5253
   799.000    2.4768
   800.000    2.4577
   801.000    2.4655
   802.000    2.4988
   803.000    2.5575
   804.000    2.6424
   805.000    2.7555
   806.000    2.8997
   807.000    3.0793
   808.000    3.3003
   809.000    3.5708
   810.000    3.9015
   811.000    4.3065
   812.000    4.8049
   813.000    5.4216
   814.000    6.1896
   815.000    7.1509
   816.000    8.3569
   817.000    9.8626
   818.000   11.7090
   819.000   13.8838
   820.000   16.2569
   821.000   18.5334
   822.000   20.3103
   823.000   21.2711
   824.000   21.3755
   825.000   20.8746
   826.000   20.1275
   827.000   19.3593
   828.000   18.5680
   829.000   17.6478
   830.000   16.5715
   831.000   15.4508
   832.000   14.4734
   833.000   13.8104
   834.000   13.5586
   835.000   13.7184
   836.000   14.1818
   837.000   14.7282
   838.000   15.0876
   839.000   15.0948
