# v / cm^-1, IR Int./ AU, Raman Int. / AU
 -100.00  0.001  0.000
  -99.00  0.001  0.000
  -98.00  0.001  0.000
  -97.00  0.001  0.000
  -96.00  0.001  0.000
  -95.00  0.001  0.000
  -94.00  0.001  0.000
  -93.00  0.001  0.000
  -92.00  0.001  0.000
  -91.00  0.001  0.000
  -90.00  0.001  0.000
  -89.00  0.001  0.000
  -88.00  0.001  0.000
  -87.00  0.001  0.000
  -86.00  0.001  0.000
  -85.00  0.001  0.000
  -84.00  0.001  0.000
  -83.00  0.001  0.000
  -82.00  0.001  0.000
  -81.00  0.001  0.000
  -80.00  0.001  0.000
  -79.00  0.001  0.000
  -78.00  0.001  0.000
  -77.00  0.001  0.000
  -76.00  0.001  0.000
  -75.00  0.001  0.000
  -74.00  0.001  0.000
  -73.00  0.001  0.000
  -72.00  0.001  0.000
  -71.00  0.001  0.000
  -70.00  0.001  0.000
  -69.00  0.001  0.000
  -68.00  0.001  0.000
  -67.00  0.001  0.000
  -66.00  0.001  0.000
  -65.00  0.001  0.000
  -64.00  0.001  0.000
  -63.00  0.001  0.000
  -62.00  0.001  0.000
  -61.00  0.001  0.000
  -60.00  0.001  0.000
  -59.00  0.001  0.000
  -58.00  0.001  0.000
  -57.00  0.001  0.000
  -56.00  0.001  0.000
  -55.00  0.001  0.000
  -54.00  0.001  0.000
  -53.00  0.001  0.000
  -52.00  0.001  0.000
  -51.00  0.001  0.000
  -50.00  0.001  0.000
  -49.00  0.001  0.000
  -48.00  0.001  0.000
  -47.00  0.001  0.000
  -46.00  0.001  0.000
  -45.00  0.001  0.000
  -44.00  0.001  0.000
  -43.00  0.001  0.000
  -42.00  0.001  0.000
  -41.00  0.001  0.000
  -40.00  0.001  0.000
  -39.00  0.001  0.000
  -38.00  0.001  0.000
  -37.00  0.001  0.000
  -36.00  0.001  0.000
  -35.00  0.001  0.000
  -34.00  0.001  0.000
  -33.00  0.001  0.000
  -32.00  0.001  0.000
  -31.00  0.001  0.000
  -30.00  0.001  0.000
  -29.00  0.001  0.000
  -28.00  0.001  0.000
  -27.00  0.001  0.000
  -26.00  0.001  0.000
  -25.00  0.001  0.000
  -24.00  0.001  0.000
  -23.00  0.001  0.000
  -22.00  0.001  0.000
  -21.00  0.001  0.000
  -20.00  0.001  0.000
  -19.00  0.001  0.000
  -18.00  0.001  0.000
  -17.00  0.001  0.000
  -16.00  0.001  0.000
  -15.00  0.001  0.000
  -14.00  0.001  0.000
  -13.00  0.001  0.000
  -12.00  0.001  0.000
  -11.00  0.001  0.000
  -10.00  0.001  0.000
   -9.00  0.001  0.000
   -8.00  0.001  0.000
   -7.00  0.001  0.000
   -6.00  0.001  0.000
   -5.00  0.001  0.000
   -4.00  0.001  0.000
   -3.00  0.001  0.000
   -2.00  0.001  0.000
   -1.00  0.001  0.000
    0.00  0.001  0.000
    1.00  0.001  0.000
    2.00  0.001  0.000
    3.00  0.001  0.000
    4.00  0.001  0.000
    5.00  0.001  0.000
    6.00  0.001  0.000
    7.00  0.001  0.000
    8.00  0.001  0.000
    9.00  0.001  0.000
   10.00  0.001  0.000
   11.00  0.001  0.000
   12.00  0.001  0.000
   13.00  0.001  0.000
   14.00  0.001  0.000
   15.00  0.001  0.000
   16.00  0.001  0.000
   17.00  0.001  0.000
   18.00  0.001  0.000
   19.00  0.001  0.000
   20.00  0.001  0.000
   21.00  0.001  0.000
   22.00  0.001  0.000
   23.00  0.001  0.000
   24.00  0.001  0.000
   25.00  0.001  0.000
   26.00  0.001  0.000
   27.00  0.001  0.000
   28.00  0.001  0.000
   29.00  0.001  0.000
   30.00  0.001  0.000
   31.00  0.001  0.000
   32.00  0.001  0.000
   33.00  0.001  0.000
   34.00  0.001  0.000
   35.00  0.001  0.000
   36.00  0.001  0.000
   37.00  0.001  0.000
   38.00  0.002  0.000
   39.00  0.002  0.000
   40.00  0.002  0.000
   41.00  0.002  0.000
   42.00  0.002  0.000
   43.00  0.002  0.000
   44.00  0.002  0.000
   45.00  0.002  0.000
   46.00  0.002  0.000
   47.00  0.002  0.000
   48.00  0.002  0.000
   49.00  0.002  0.000
   50.00  0.002  0.000
   51.00  0.002  0.000
   52.00  0.002  0.000
   53.00  0.002  0.000
   54.00  0.002  0.000
   55.00  0.002  0.000
   56.00  0.002  0.000
   57.00  0.002  0.000
   58.00  0.002  0.000
   59.00  0.002  0.000
   60.00  0.002  0.000
   61.00  0.002  0.000
   62.00  0.002  0.000
   63.00  0.002  0.000
   64.00  0.003  0.000
   65.00  0.003  0.000
   66.00  0.003  0.000
   67.00  0.003  0.000
   68.00  0.003  0.000
   69.00  0.003  0.000
   70.00  0.003  0.000
   71.00  0.004  0.000
   72.00  0.004  0.000
   73.00  0.004  0.000
   74.00  0.004  0.000
   75.00  0.005  0.000
   76.00  0.005  0.000
   77.00  0.006  0.000
   78.00  0.006  0.000
   79.00  0.007  0.000
   80.00  0.008  0.000
   81.00  0.010  0.000
   82.00  0.012  0.000
   83.00  0.013  0.000
   84.00  0.015  0.000
   85.00  0.017  0.000
   86.00  0.017  0.000
   87.00  0.016  0.000
   88.00  0.015  0.000
   89.00  0.013  0.000
   90.00  0.011  0.000
   91.00  0.010  0.000
   92.00  0.009  0.000
   93.00  0.008  0.000
   94.00  0.007  0.000
   95.00  0.006  0.000
   96.00  0.006  0.000
   97.00  0.006  0.000
   98.00  0.005  0.000
   99.00  0.005  0.000
  100.00  0.005  0.000
  101.00  0.005  0.000
  102.00  0.005  0.000
  103.00  0.005  0.000
  104.00  0.005  0.000
  105.00  0.005  0.000
  106.00  0.005  0.000
  107.00  0.005  0.000
  108.00  0.005  0.000
  109.00  0.005  0.000
  110.00  0.005  0.000
  111.00  0.005  0.000
  112.00  0.005  0.000
  113.00  0.005  0.000
  114.00  0.005  0.000
  115.00  0.005  0.000
  116.00  0.005  0.000
  117.00  0.006  0.000
  118.00  0.006  0.000
  119.00  0.006  0.000
  120.00  0.006  0.000
  121.00  0.006  0.000
  122.00  0.006  0.000
  123.00  0.007  0.000
  124.00  0.007  0.000
  125.00  0.007  0.000
  126.00  0.007  0.000
  127.00  0.007  0.000
  128.00  0.008  0.000
  129.00  0.008  0.000
  130.00  0.008  0.000
  131.00  0.008  0.000
  132.00  0.009  0.000
  133.00  0.009  0.000
  134.00  0.010  0.000
  135.00  0.010  0.000
  136.00  0.011  0.000
  137.00  0.011  0.000
  138.00  0.012  0.000
  139.00  0.012  0.000
  140.00  0.013  0.000
  141.00  0.014  0.000
  142.00  0.015  0.000
  143.00  0.016  0.000
  144.00  0.017  0.000
  145.00  0.019  0.000
  146.00  0.021  0.000
  147.00  0.023  0.000
  148.00  0.026  0.000
  149.00  0.029  0.000
  150.00  0.033  0.000
  151.00  0.037  0.000
  152.00  0.042  0.000
  153.00  0.047  0.000
  154.00  0.050  0.000
  155.00  0.052  0.000
  156.00  0.052  0.000
  157.00  0.050  0.000
  158.00  0.049  0.000
  159.00  0.048  0.000
  160.00  0.048  0.000
  161.00  0.049  0.000
  162.00  0.051  0.000
  163.00  0.054  0.000
  164.00  0.058  0.000
  165.00  0.063  0.000
  166.00  0.069  0.000
  167.00  0.078  0.000
  168.00  0.088  0.000
  169.00  0.100  0.000
  170.00  0.116  0.000
  171.00  0.135  0.000
  172.00  0.159  0.000
  173.00  0.189  0.000
  174.00  0.226  0.000
  175.00  0.271  0.001
  176.00  0.325  0.001
  177.00  0.386  0.001
  178.00  0.450  0.001
  179.00  0.506  0.001
  180.00  0.543  0.001
  181.00  0.547  0.001
  182.00  0.514  0.001
  183.00  0.455  0.001
  184.00  0.387  0.001
  185.00  0.323  0.001
  186.00  0.268  0.001
  187.00  0.224  0.001
  188.00  0.189  0.001
  189.00  0.162  0.001
  190.00  0.140  0.001
  191.00  0.122  0.001
  192.00  0.106  0.001
  193.00  0.093  0.001
  194.00  0.081  0.001
  195.00  0.072  0.001
  196.00  0.064  0.001
  197.00  0.058  0.001
  198.00  0.052  0.001
  199.00  0.048  0.001
  200.00  0.044  0.001
  201.00  0.042  0.001
  202.00  0.039  0.002
  203.00  0.038  0.002
  204.00  0.036  0.002
  205.00  0.036  0.002
  206.00  0.036  0.002
  207.00  0.036  0.003
  208.00  0.038  0.003
  209.00  0.040  0.003
  210.00  0.041  0.004
  211.00  0.043  0.005
  212.00  0.043  0.005
  213.00  0.041  0.007
  214.00  0.037  0.008
  215.00  0.033  0.010
  216.00  0.030  0.011
  217.00  0.027  0.014
  218.00  0.024  0.015
  219.00  0.022  0.016
  220.00  0.020  0.016
  221.00  0.019  0.014
  222.00  0.018  0.013
  223.00  0.017  0.011
  224.00  0.017  0.009
  225.00  0.017  0.007
  226.00  0.017  0.006
  227.00  0.017  0.005
  228.00  0.017  0.004
  229.00  0.017  0.004
  230.00  0.016  0.003
  231.00  0.015  0.003
  232.00  0.015  0.003
  233.00  0.014  0.002
  234.00  0.013  0.002
  235.00  0.012  0.002
  236.00  0.011  0.002
  237.00  0.011  0.002
  238.00  0.010  0.002
  239.00  0.010  0.002
  240.00  0.009  0.002
  241.00  0.009  0.002
  242.00  0.009  0.001
  243.00  0.009  0.001
  244.00  0.008  0.001
  245.00  0.008  0.001
  246.00  0.008  0.001
  247.00  0.008  0.001
  248.00  0.008  0.001
  249.00  0.008  0.001
  250.00  0.008  0.001
  251.00  0.008  0.001
  252.00  0.008  0.001
  253.00  0.008  0.001
  254.00  0.007  0.001
  255.00  0.007  0.001
  256.00  0.007  0.001
  257.00  0.007  0.001
  258.00  0.007  0.001
  259.00  0.007  0.001
  260.00  0.007  0.001
  261.00  0.007  0.001
  262.00  0.007  0.001
  263.00  0.008  0.001
  264.00  0.008  0.001
  265.00  0.008  0.001
  266.00  0.008  0.001
  267.00  0.008  0.001
  268.00  0.008  0.001
  269.00  0.008  0.001
  270.00  0.008  0.001
  271.00  0.008  0.001
  272.00  0.008  0.001
  273.00  0.008  0.001
  274.00  0.009  0.001
  275.00  0.009  0.001
  276.00  0.009  0.001
  277.00  0.009  0.001
  278.00  0.009  0.001
  279.00  0.009  0.001
  280.00  0.010  0.001
  281.00  0.010  0.001
  282.00  0.010  0.001
  283.00  0.010  0.001
  284.00  0.011  0.001
  285.00  0.011  0.001
  286.00  0.011  0.001
  287.00  0.012  0.001
  288.00  0.012  0.001
  289.00  0.013  0.001
  290.00  0.013  0.001
  291.00  0.014  0.001
  292.00  0.014  0.002
  293.00  0.015  0.002
  294.00  0.016  0.002
  295.00  0.016  0.002
  296.00  0.017  0.002
  297.00  0.018  0.002
  298.00  0.019  0.002
  299.00  0.021  0.002
  300.00  0.022  0.002
  301.00  0.024  0.002
  302.00  0.026  0.002
  303.00  0.028  0.002
  304.00  0.031  0.003
  305.00  0.035  0.003
  306.00  0.039  0.003
  307.00  0.044  0.003
  308.00  0.050  0.003
  309.00  0.057  0.004
  310.00  0.066  0.004
  311.00  0.076  0.004
  312.00  0.088  0.005
  313.00  0.100  0.005
  314.00  0.113  0.006
  315.00  0.126  0.007
  316.00  0.140  0.008
  317.00  0.154  0.009
  318.00  0.165  0.010
  319.00  0.168  0.012
  320.00  0.162  0.014
  321.00  0.148  0.016
  322.00  0.131  0.019
  323.00  0.114  0.023
  324.00  0.098  0.028
  325.00  0.086  0.034
  326.00  0.077  0.040
  327.00  0.070  0.045
  328.00  0.065  0.048
  329.00  0.061  0.047
  330.00  0.058  0.043
  331.00  0.057  0.037
  332.00  0.057  0.031
  333.00  0.057  0.026
  334.00  0.058  0.022
  335.00  0.059  0.018
  336.00  0.062  0.016
  337.00  0.065  0.014
  338.00  0.068  0.012
  339.00  0.073  0.011
  340.00  0.079  0.010
  341.00  0.085  0.009
  342.00  0.093  0.009
  343.00  0.103  0.008
  344.00  0.114  0.008
  345.00  0.128  0.008
  346.00  0.145  0.008
  347.00  0.166  0.008
  348.00  0.192  0.008
  349.00  0.224  0.009
  350.00  0.264  0.010
  351.00  0.314  0.011
  352.00  0.378  0.012
  353.00  0.459  0.014
  354.00  0.559  0.016
  355.00  0.677  0.019
  356.00  0.803  0.022
  357.00  0.914  0.026
  358.00  0.977  0.031
  359.00  0.968  0.035
  360.00  0.890  0.038
  361.00  0.773  0.038
  362.00  0.647  0.035
  363.00  0.533  0.031
  364.00  0.438  0.026
  365.00  0.361  0.022
  366.00  0.301  0.018
  367.00  0.253  0.015
  368.00  0.215  0.013
  369.00  0.184  0.011
  370.00  0.160  0.009
  371.00  0.140  0.008
  372.00  0.124  0.007
  373.00  0.110  0.006
  374.00  0.099  0.006
  375.00  0.090  0.005
  376.00  0.082  0.005
  377.00  0.075  0.004
  378.00  0.070  0.004
  379.00  0.065  0.004
  380.00  0.062  0.004
  381.00  0.059  0.003
  382.00  0.057  0.003
  383.00  0.056  0.003
  384.00  0.056  0.003
  385.00  0.056  0.003
  386.00  0.058  0.003
  387.00  0.059  0.003
  388.00  0.060  0.003
  389.00  0.061  0.003
  390.00  0.061  0.002
  391.00  0.061  0.002
  392.00  0.059  0.002
  393.00  0.056  0.002
  394.00  0.051  0.002
  395.00  0.046  0.002
  396.00  0.042  0.002
  397.00  0.038  0.002
  398.00  0.034  0.002
  399.00  0.032  0.002
  400.00  0.029  0.002
  401.00  0.027  0.002
  402.00  0.026  0.002
  403.00  0.025  0.002
  404.00  0.024  0.002
  405.00  0.023  0.002
  406.00  0.022  0.002
  407.00  0.021  0.002
  408.00  0.021  0.002
  409.00  0.020  0.002
  410.00  0.020  0.002
  411.00  0.020  0.002
  412.00  0.020  0.002
  413.00  0.020  0.002
  414.00  0.020  0.003
  415.00  0.020  0.003
  416.00  0.020  0.003
  417.00  0.020  0.003
  418.00  0.021  0.003
  419.00  0.021  0.003
  420.00  0.022  0.004
  421.00  0.023  0.004
  422.00  0.024  0.004
  423.00  0.025  0.005
  424.00  0.027  0.005
  425.00  0.028  0.005
  426.00  0.030  0.005
  427.00  0.031  0.005
  428.00  0.032  0.005
  429.00  0.032  0.004
  430.00  0.032  0.004
  431.00  0.032  0.004
  432.00  0.033  0.004
  433.00  0.034  0.004
  434.00  0.036  0.004
  435.00  0.038  0.004
  436.00  0.042  0.004
  437.00  0.046  0.004
  438.00  0.051  0.004
  439.00  0.057  0.004
  440.00  0.062  0.004
  441.00  0.066  0.004
  442.00  0.068  0.004
  443.00  0.068  0.004
  444.00  0.065  0.004
  445.00  0.061  0.004
  446.00  0.058  0.004
  447.00  0.056  0.004
  448.00  0.054  0.004
  449.00  0.053  0.004
  450.00  0.054  0.004
  451.00  0.055  0.004
  452.00  0.058  0.004
  453.00  0.061  0.005
  454.00  0.065  0.005
  455.00  0.070  0.005
  456.00  0.076  0.005
  457.00  0.083  0.005
  458.00  0.093  0.006
  459.00  0.104  0.006
  460.00  0.118  0.006
  461.00  0.135  0.007
  462.00  0.157  0.007
  463.00  0.184  0.008
  464.00  0.217  0.008
  465.00  0.260  0.008
  466.00  0.312  0.009
  467.00  0.375  0.009
  468.00  0.446  0.009
  469.00  0.517  0.010
  470.00  0.573  0.010
  471.00  0.598  0.011
  472.00  0.584  0.011
  473.00  0.539  0.012
  474.00  0.481  0.013
  475.00  0.425  0.014
  476.00  0.380  0.016
  477.00  0.347  0.017
  478.00  0.324  0.019
  479.00  0.305  0.022
  480.00  0.283  0.025
  481.00  0.256  0.029
  482.00  0.227  0.034
  483.00  0.199  0.039
  484.00  0.175  0.045
  485.00  0.155  0.051
  486.00  0.139  0.054
  487.00  0.127  0.055
  488.00  0.119  0.054
  489.00  0.113  0.051
  490.00  0.110  0.049
  491.00  0.110  0.047
  492.00  0.112  0.048
  493.00  0.116  0.049
  494.00  0.123  0.053
  495.00  0.133  0.057
  496.00  0.147  0.063
  497.00  0.165  0.069
  498.00  0.185  0.073
  499.00  0.208  0.074
  500.00  0.232  0.071
  501.00  0.256  0.067
  502.00  0.282  0.063
  503.00  0.311  0.060
  504.00  0.343  0.058
  505.00  0.378  0.058
  506.00  0.406  0.059
  507.00  0.416  0.062
  508.00  0.401  0.067
  509.00  0.364  0.074
  510.00  0.316  0.082
  511.00  0.268  0.092
  512.00  0.225  0.103
  513.00  0.190  0.112
  514.00  0.162  0.119
  515.00  0.141  0.124
  516.00  0.124  0.129
  517.00  0.112  0.136
  518.00  0.103  0.146
  519.00  0.097  0.162
  520.00  0.093  0.185
  521.00  0.092  0.214
  522.00  0.094  0.253
  523.00  0.098  0.300
  524.00  0.105  0.355
  525.00  0.112  0.412
  526.00  0.119  0.458
  527.00  0.122  0.478
  528.00  0.120  0.465
  529.00  0.111  0.423
  530.00  0.099  0.368
  531.00  0.086  0.311
  532.00  0.074  0.259
  533.00  0.064  0.215
  534.00  0.055  0.178
  535.00  0.048  0.148
  536.00  0.042  0.125
  537.00  0.038  0.106
  538.00  0.034  0.090
  539.00  0.031  0.078
  540.00  0.028  0.068
  541.00  0.026  0.060
  542.00  0.024  0.053
  543.00  0.022  0.047
  544.00  0.021  0.042
  545.00  0.019  0.038
  546.00  0.018  0.035
  547.00  0.017  0.031
  548.00  0.016  0.029
  549.00  0.015  0.026
  550.00  0.015  0.024
  551.00  0.014  0.022
  552.00  0.013  0.021
  553.00  0.013  0.019
  554.00  0.012  0.018
  555.00  0.012  0.017
  556.00  0.011  0.016
  557.00  0.011  0.015
  558.00  0.011  0.014
  559.00  0.010  0.013
  560.00  0.010  0.012
  561.00  0.010  0.012
  562.00  0.009  0.011
  563.00  0.009  0.011
  564.00  0.009  0.010
  565.00  0.008  0.010
  566.00  0.008  0.009
  567.00  0.008  0.009
  568.00  0.008  0.008
  569.00  0.008  0.008
  570.00  0.007  0.008
  571.00  0.007  0.007
  572.00  0.007  0.007
  573.00  0.007  0.007
  574.00  0.007  0.007
  575.00  0.007  0.006
  576.00  0.006  0.006
  577.00  0.006  0.006
  578.00  0.006  0.006
  579.00  0.006  0.006
  580.00  0.006  0.005
  581.00  0.006  0.005
  582.00  0.006  0.005
  583.00  0.006  0.005
  584.00  0.006  0.005
  585.00  0.005  0.005
  586.00  0.005  0.004
  587.00  0.005  0.004
  588.00  0.005  0.004
  589.00  0.005  0.004
  590.00  0.005  0.004
  591.00  0.005  0.004
  592.00  0.005  0.004
  593.00  0.005  0.004
  594.00  0.005  0.004
  595.00  0.005  0.004
  596.00  0.005  0.003
  597.00  0.005  0.003
  598.00  0.005  0.003
  599.00  0.004  0.003
  600.00  0.004  0.003
  601.00  0.004  0.003
  602.00  0.004  0.003
  603.00  0.004  0.003
  604.00  0.004  0.003
  605.00  0.004  0.003
  606.00  0.004  0.003
  607.00  0.004  0.003
  608.00  0.004  0.003
  609.00  0.004  0.003
  610.00  0.004  0.003
  611.00  0.004  0.003
  612.00  0.004  0.003
  613.00  0.004  0.003
  614.00  0.004  0.003
  615.00  0.004  0.003
  616.00  0.004  0.003
  617.00  0.004  0.003
  618.00  0.004  0.002
  619.00  0.004  0.002
  620.00  0.004  0.002
  621.00  0.004  0.002
  622.00  0.004  0.002
  623.00  0.004  0.002
  624.00  0.004  0.002
  625.00  0.004  0.002
  626.00  0.004  0.002
  627.00  0.004  0.002
  628.00  0.004  0.002
  629.00  0.004  0.002
  630.00  0.004  0.002
  631.00  0.004  0.002
  632.00  0.004  0.002
  633.00  0.004  0.002
  634.00  0.004  0.002
  635.00  0.004  0.002
  636.00  0.004  0.002
  637.00  0.004  0.002
  638.00  0.004  0.002
  639.00  0.004  0.002
  640.00  0.004  0.002
  641.00  0.004  0.002
  642.00  0.004  0.002
  643.00  0.004  0.002
  644.00  0.004  0.002
  645.00  0.004  0.002
  646.00  0.004  0.002
  647.00  0.004  0.003
  648.00  0.004  0.003
  649.00  0.005  0.003
  650.00  0.005  0.003
  651.00  0.005  0.003
  652.00  0.005  0.003
  653.00  0.005  0.003
  654.00  0.005  0.003
  655.00  0.005  0.003
  656.00  0.005  0.003
  657.00  0.006  0.003
  658.00  0.006  0.003
  659.00  0.006  0.003
  660.00  0.006  0.003
  661.00  0.007  0.003
  662.00  0.007  0.003
  663.00  0.007  0.004
  664.00  0.008  0.004
  665.00  0.008  0.004
  666.00  0.009  0.004
  667.00  0.010  0.004
  668.00  0.011  0.005
  669.00  0.012  0.005
  670.00  0.013  0.005
  671.00  0.015  0.006
  672.00  0.017  0.006
  673.00  0.019  0.007
  674.00  0.022  0.007
  675.00  0.026  0.008
  676.00  0.030  0.009
  677.00  0.034  0.010
  678.00  0.039  0.012
  679.00  0.042  0.013
  680.00  0.046  0.016
  681.00  0.049  0.018
  682.00  0.052  0.021
  683.00  0.057  0.023
  684.00  0.062  0.024
  685.00  0.065  0.024
  686.00  0.065  0.022
  687.00  0.061  0.020
  688.00  0.054  0.018
  689.00  0.047  0.016
  690.00  0.040  0.015
  691.00  0.034  0.014
  692.00  0.029  0.014
  693.00  0.026  0.014
  694.00  0.023  0.014
  695.00  0.021  0.014
  696.00  0.019  0.014
  697.00  0.018  0.015
  698.00  0.017  0.016
  699.00  0.017  0.018
  700.00  0.017  0.019
  701.00  0.017  0.021
  702.00  0.016  0.024
  703.00  0.016  0.027
  704.00  0.016  0.031
  705.00  0.016  0.036
  706.00  0.017  0.042
  707.00  0.017  0.049
  708.00  0.018  0.059
  709.00  0.019  0.071
  710.00  0.020  0.087
  711.00  0.021  0.105
  712.00  0.023  0.125
  713.00  0.025  0.143
  714.00  0.027  0.155
  715.00  0.031  0.156
  716.00  0.035  0.145
  717.00  0.041  0.127
  718.00  0.048  0.107
  719.00  0.057  0.089
  720.00  0.068  0.073
  721.00  0.081  0.060
  722.00  0.096  0.050
  723.00  0.110  0.043
  724.00  0.121  0.036
  725.00  0.126  0.032
  726.00  0.122  0.028
  727.00  0.110  0.024
  728.00  0.095  0.022
  729.00  0.080  0.019
  730.00  0.066  0.017
  731.00  0.055  0.016
  732.00  0.046  0.015
  733.00  0.039  0.014
  734.00  0.033  0.013
  735.00  0.028  0.012
  736.00  0.025  0.011
  737.00  0.022  0.011
  738.00  0.019  0.010
  739.00  0.018  0.010
  740.00  0.016  0.010
  741.00  0.014  0.010
  742.00  0.013  0.009
  743.00  0.012  0.009
  744.00  0.011  0.009
  745.00  0.011  0.010
  746.00  0.010  0.010
  747.00  0.010  0.010
  748.00  0.009  0.011
  749.00  0.009  0.011
  750.00  0.008  0.012
  751.00  0.008  0.013
  752.00  0.008  0.014
  753.00  0.008  0.015
  754.00  0.008  0.017
  755.00  0.007  0.019
  756.00  0.007  0.022
  757.00  0.007  0.026
  758.00  0.008  0.031
  759.00  0.008  0.037
  760.00  0.008  0.044
  761.00  0.008  0.053
  762.00  0.008  0.061
  763.00  0.008  0.068
  764.00  0.008  0.070
  765.00  0.007  0.067
  766.00  0.007  0.060
  767.00  0.007  0.052
  768.00  0.006  0.043
  769.00  0.006  0.036
  770.00  0.006  0.030
  771.00  0.006  0.025
  772.00  0.006  0.021
  773.00  0.006  0.018
  774.00  0.006  0.016
  775.00  0.006  0.014
  776.00  0.005  0.013
  777.00  0.005  0.011
  778.00  0.005  0.010
  779.00  0.005  0.009
  780.00  0.005  0.009
  781.00  0.005  0.008
  782.00  0.005  0.008
  783.00  0.005  0.007
  784.00  0.006  0.007
  785.00  0.006  0.006
  786.00  0.006  0.006
  787.00  0.006  0.006
  788.00  0.006  0.006
  789.00  0.006  0.006
  790.00  0.006  0.006
  791.00  0.006  0.005
  792.00  0.006  0.005
  793.00  0.006  0.005
  794.00  0.006  0.005
  795.00  0.006  0.005
  796.00  0.006  0.005
  797.00  0.007  0.005
  798.00  0.007  0.005
  799.00  0.007  0.005
  800.00  0.007  0.006
  801.00  0.007  0.006
  802.00  0.007  0.006
  803.00  0.008  0.006
  804.00  0.008  0.006
  805.00  0.008  0.006
  806.00  0.008  0.006
  807.00  0.008  0.007
  808.00  0.009  0.007
  809.00  0.009  0.007
  810.00  0.009  0.007
  811.00  0.010  0.008
  812.00  0.010  0.008
  813.00  0.011  0.009
  814.00  0.011  0.009
  815.00  0.012  0.010
  816.00  0.012  0.011
  817.00  0.013  0.011
  818.00  0.013  0.012
  819.00  0.014  0.013
  820.00  0.015  0.014
  821.00  0.016  0.016
  822.00  0.017  0.017
  823.00  0.019  0.019
  824.00  0.020  0.021
  825.00  0.022  0.024
  826.00  0.024  0.027
  827.00  0.026  0.030
  828.00  0.029  0.035
  829.00  0.032  0.040
  830.00  0.036  0.047
  831.00  0.041  0.055
  832.00  0.048  0.066
  833.00  0.055  0.080
  834.00  0.065  0.097
  835.00  0.077  0.118
  836.00  0.092  0.143
  837.00  0.110  0.170
  838.00  0.130  0.196
  839.00  0.151  0.213
  840.00  0.170  0.215
  841.00  0.182  0.200
  842.00  0.184  0.176
  843.00  0.174  0.148
  844.00  0.156  0.122
  845.00  0.135  0.100
  846.00  0.114  0.083
  847.00  0.096  0.068
  848.00  0.081  0.057
  849.00  0.070  0.048
  850.00  0.061  0.041
  851.00  0.053  0.036
  852.00  0.048  0.031
  853.00  0.044  0.027
  854.00  0.040  0.024
  855.00  0.038  0.021
  856.00  0.036  0.019
  857.00  0.034  0.017
  858.00  0.033  0.016
  859.00  0.032  0.014
  860.00  0.032  0.013
  861.00  0.031  0.012
  862.00  0.031  0.011
  863.00  0.032  0.010
  864.00  0.032  0.009
  865.00  0.033  0.009
  866.00  0.034  0.008
  867.00  0.035  0.008
  868.00  0.036  0.007
  869.00  0.038  0.007
  870.00  0.039  0.006
  871.00  0.041  0.006
  872.00  0.044  0.006
  873.00  0.046  0.005
  874.00  0.049  0.005
  875.00  0.053  0.005
  876.00  0.057  0.005
  877.00  0.062  0.005
  878.00  0.067  0.004
  879.00  0.073  0.004
  880.00  0.080  0.004
  881.00  0.089  0.004
  882.00  0.099  0.004
  883.00  0.111  0.004
  884.00  0.125  0.004
  885.00  0.143  0.003
  886.00  0.164  0.003
  887.00  0.190  0.003
  888.00  0.221  0.003
  889.00  0.260  0.003
  890.00  0.307  0.003
  891.00  0.363  0.003
  892.00  0.431  0.003
  893.00  0.511  0.003
  894.00  0.607  0.003
  895.00  0.718  0.003
  896.00  0.834  0.003
  897.00  0.939  0.003
  898.00  1.000  0.003
  899.00  0.993  0.003
  900.00  0.917  0.003
  901.00  0.799  0.003
  902.00  0.671  0.003
  903.00  0.554  0.003
  904.00  0.455  0.003
  905.00  0.375  0.003
  906.00  0.312  0.003
  907.00  0.262  0.003
  908.00  0.222  0.003
  909.00  0.191  0.003
  910.00  0.165  0.003
  911.00  0.144  0.003
  912.00  0.127  0.004
  913.00  0.114  0.004
  914.00  0.102  0.004
  915.00  0.092  0.004
  916.00  0.084  0.005
  917.00  0.078  0.005
  918.00  0.072  0.006
  919.00  0.068  0.006
  920.00  0.064  0.007
  921.00  0.061  0.008
  922.00  0.060  0.010
  923.00  0.059  0.011
  924.00  0.059  0.013
  925.00  0.061  0.016
  926.00  0.063  0.019
  927.00  0.066  0.023
  928.00  0.069  0.028
  929.00  0.070  0.032
  930.00  0.069  0.035
  931.00  0.065  0.036
  932.00  0.060  0.034
  933.00  0.054  0.030
  934.00  0.048  0.025
  935.00  0.043  0.021
  936.00  0.039  0.017
  937.00  0.035  0.014
  938.00  0.033  0.012
  939.00  0.031  0.010
  940.00  0.029  0.009
  941.00  0.027  0.008
  942.00  0.026  0.007
  943.00  0.026  0.006
  944.00  0.025  0.005
  945.00  0.025  0.005
  946.00  0.025  0.004
  947.00  0.025  0.004
  948.00  0.025  0.003
  949.00  0.025  0.003
  950.00  0.026  0.003
  951.00  0.027  0.003
  952.00  0.029  0.003
  953.00  0.031  0.002
  954.00  0.033  0.002
  955.00  0.037  0.002
  956.00  0.041  0.002
  957.00  0.046  0.002
  958.00  0.053  0.002
  959.00  0.062  0.002
  960.00  0.072  0.002
  961.00  0.085  0.002
  962.00  0.100  0.002
  963.00  0.114  0.001
  964.00  0.126  0.001
  965.00  0.135  0.001
  966.00  0.137  0.001
  967.00  0.132  0.001
  968.00  0.120  0.001
  969.00  0.104  0.001
  970.00  0.089  0.001
  971.00  0.074  0.001
  972.00  0.062  0.001
  973.00  0.052  0.001
  974.00  0.044  0.001
  975.00  0.038  0.001
  976.00  0.033  0.001
  977.00  0.029  0.001
  978.00  0.026  0.001
  979.00  0.023  0.001
  980.00  0.021  0.001
  981.00  0.019  0.001
  982.00  0.017  0.001
  983.00  0.016  0.001
  984.00  0.015  0.001
  985.00  0.014  0.001
  986.00  0.013  0.001
  987.00  0.012  0.001
  988.00  0.011  0.001
  989.00  0.011  0.001
  990.00  0.010  0.001
  991.00  0.010  0.001
  992.00  0.009  0.001
  993.00  0.009  0.001
  994.00  0.009  0.001
  995.00  0.008  0.001
  996.00  0.008  0.001
  997.00  0.008  0.001
  998.00  0.007  0.001
  999.00  0.007  0.001
 1000.00  0.007  0.001
 1001.00  0.007  0.001
 1002.00  0.007  0.001
 1003.00  0.006  0.001
 1004.00  0.006  0.001
 1005.00  0.006  0.001
 1006.00  0.006  0.001
 1007.00  0.006  0.001
 1008.00  0.006  0.001
 1009.00  0.006  0.001
 1010.00  0.005  0.001
 1011.00  0.005  0.001
 1012.00  0.005  0.001
 1013.00  0.005  0.001
 1014.00  0.005  0.001
 1015.00  0.005  0.001
 1016.00  0.005  0.001
 1017.00  0.005  0.001
 1018.00  0.005  0.001
 1019.00  0.005  0.001
 1020.00  0.005  0.001
 1021.00  0.005  0.001
 1022.00  0.005  0.001
 1023.00  0.005  0.001
 1024.00  0.005  0.001
 1025.00  0.005  0.001
 1026.00  0.005  0.001
 1027.00  0.005  0.001
 1028.00  0.005  0.001
 1029.00  0.005  0.001
 1030.00  0.005  0.001
 1031.00  0.005  0.001
 1032.00  0.005  0.001
 1033.00  0.006  0.001
 1034.00  0.006  0.001
 1035.00  0.006  0.001
 1036.00  0.007  0.001
 1037.00  0.007  0.001
 1038.00  0.008  0.002
 1039.00  0.009  0.002
 1040.00  0.010  0.002
 1041.00  0.011  0.002
 1042.00  0.012  0.003
 1043.00  0.013  0.003
 1044.00  0.014  0.003
 1045.00  0.014  0.003
 1046.00  0.014  0.003
 1047.00  0.013  0.002
 1048.00  0.012  0.002
 1049.00  0.010  0.002
 1050.00  0.009  0.002
 1051.00  0.008  0.002
 1052.00  0.007  0.001
 1053.00  0.007  0.001
 1054.00  0.006  0.001
 1055.00  0.006  0.001
 1056.00  0.006  0.001
 1057.00  0.006  0.001
 1058.00  0.005  0.001
 1059.00  0.005  0.001
 1060.00  0.005  0.001
 1061.00  0.005  0.001
 1062.00  0.005  0.001
 1063.00  0.005  0.001
 1064.00  0.005  0.001
 1065.00  0.005  0.001
 1066.00  0.005  0.002
 1067.00  0.006  0.002
 1068.00  0.006  0.002
 1069.00  0.006  0.002
 1070.00  0.006  0.002
 1071.00  0.006  0.002
 1072.00  0.007  0.002
 1073.00  0.007  0.002
 1074.00  0.007  0.003
 1075.00  0.008  0.003
 1076.00  0.009  0.003
 1077.00  0.009  0.003
 1078.00  0.010  0.004
 1079.00  0.011  0.004
 1080.00  0.013  0.005
 1081.00  0.014  0.005
 1082.00  0.016  0.006
 1083.00  0.019  0.007
 1084.00  0.022  0.008
 1085.00  0.026  0.010
 1086.00  0.030  0.012
 1087.00  0.037  0.015
 1088.00  0.044  0.018
 1089.00  0.053  0.022
 1090.00  0.061  0.026
 1091.00  0.068  0.029
 1092.00  0.071  0.032
 1093.00  0.068  0.032
 1094.00  0.062  0.030
 1095.00  0.053  0.026
 1096.00  0.045  0.022
 1097.00  0.037  0.018
 1098.00  0.031  0.015
 1099.00  0.026  0.012
 1100.00  0.022  0.010
 1101.00  0.019  0.009
 1102.00  0.016  0.007
 1103.00  0.014  0.006
 1104.00  0.012  0.005
 1105.00  0.011  0.005
 1106.00  0.010  0.004
 1107.00  0.009  0.004
 1108.00  0.008  0.003
 1109.00  0.008  0.003
 1110.00  0.007  0.003
 1111.00  0.007  0.002
 1112.00  0.006  0.002
 1113.00  0.006  0.002
 1114.00  0.005  0.002
 1115.00  0.005  0.002
 1116.00  0.005  0.002
 1117.00  0.005  0.002
 1118.00  0.005  0.001
 1119.00  0.004  0.001
 1120.00  0.004  0.001
 1121.00  0.004  0.001
 1122.00  0.004  0.001
 1123.00  0.004  0.001
 1124.00  0.004  0.001
 1125.00  0.004  0.001
 1126.00  0.004  0.001
 1127.00  0.004  0.001
 1128.00  0.003  0.001
 1129.00  0.003  0.001
 1130.00  0.003  0.001
 1131.00  0.003  0.001
 1132.00  0.003  0.001
 1133.00  0.003  0.001
 1134.00  0.003  0.001
 1135.00  0.003  0.001
 1136.00  0.003  0.001
 1137.00  0.003  0.001
 1138.00  0.003  0.001
 1139.00  0.003  0.001
 1140.00  0.003  0.001
 1141.00  0.003  0.001
 1142.00  0.003  0.001
 1143.00  0.003  0.001
 1144.00  0.003  0.001
 1145.00  0.003  0.001
 1146.00  0.003  0.000
 1147.00  0.003  0.000
 1148.00  0.003  0.000
 1149.00  0.003  0.000
 1150.00  0.003  0.000
 1151.00  0.003  0.000
 1152.00  0.003  0.000
 1153.00  0.003  0.000
 1154.00  0.003  0.000
 1155.00  0.004  0.000
 1156.00  0.004  0.000
 1157.00  0.004  0.000
 1158.00  0.004  0.000
 1159.00  0.004  0.000
 1160.00  0.004  0.000
 1161.00  0.004  0.000
 1162.00  0.004  0.000
 1163.00  0.004  0.000
 1164.00  0.004  0.000
 1165.00  0.003  0.000
 1166.00  0.003  0.000
 1167.00  0.003  0.000
 1168.00  0.003  0.000
 1169.00  0.003  0.000
 1170.00  0.003  0.000
 1171.00  0.003  0.000
 1172.00  0.003  0.000
 1173.00  0.003  0.000
 1174.00  0.003  0.000
 1175.00  0.003  0.000
 1176.00  0.003  0.000
 1177.00  0.003  0.000
 1178.00  0.003  0.000
 1179.00  0.003  0.000
 1180.00  0.003  0.000
 1181.00  0.003  0.000
 1182.00  0.003  0.000
 1183.00  0.003  0.000
 1184.00  0.003  0.000
 1185.00  0.004  0.000
 1186.00  0.004  0.000
 1187.00  0.004  0.000
 1188.00  0.004  0.000
 1189.00  0.004  0.000
 1190.00  0.004  0.000
 1191.00  0.004  0.000
 1192.00  0.004  0.000
 1193.00  0.004  0.000
 1194.00  0.004  0.000
 1195.00  0.004  0.000
 1196.00  0.004  0.000
 1197.00  0.004  0.000
 1198.00  0.004  0.000
 1199.00  0.004  0.000
 1200.00  0.004  0.000
 1201.00  0.005  0.000
 1202.00  0.005  0.000
 1203.00  0.005  0.000
 1204.00  0.005  0.000
 1205.00  0.005  0.000
 1206.00  0.005  0.000
 1207.00  0.005  0.000
 1208.00  0.005  0.000
 1209.00  0.006  0.000
 1210.00  0.006  0.000
 1211.00  0.006  0.000
 1212.00  0.006  0.000
 1213.00  0.006  0.000
 1214.00  0.007  0.000
 1215.00  0.007  0.000
 1216.00  0.007  0.000
 1217.00  0.007  0.000
 1218.00  0.008  0.000
 1219.00  0.008  0.000
 1220.00  0.008  0.000
 1221.00  0.009  0.000
 1222.00  0.009  0.000
 1223.00  0.010  0.000
 1224.00  0.011  0.000
 1225.00  0.011  0.000
 1226.00  0.012  0.000
 1227.00  0.013  0.000
 1228.00  0.014  0.000
 1229.00  0.016  0.000
 1230.00  0.017  0.000
 1231.00  0.019  0.000
 1232.00  0.021  0.000
 1233.00  0.023  0.000
 1234.00  0.025  0.000
 1235.00  0.028  0.000
 1236.00  0.032  0.000
 1237.00  0.037  0.000
 1238.00  0.044  0.000
 1239.00  0.052  0.000
 1240.00  0.062  0.000
 1241.00  0.073  0.000
 1242.00  0.086  0.000
 1243.00  0.097  0.000
 1244.00  0.104  0.000
 1245.00  0.104  0.000
 1246.00  0.098  0.000
 1247.00  0.088  0.000
 1248.00  0.076  0.000
 1249.00  0.066  0.000
 1250.00  0.057  0.000
 1251.00  0.050  0.000
 1252.00  0.045  0.000
 1253.00  0.041  0.000
 1254.00  0.038  0.000
 1255.00  0.037  0.000
 1256.00  0.036  0.000
 1257.00  0.036  0.000
 1258.00  0.037  0.000
 1259.00  0.039  0.000
 1260.00  0.042  0.000
 1261.00  0.045  0.000
 1262.00  0.050  0.000
 1263.00  0.057  0.000
 1264.00  0.065  0.000
 1265.00  0.076  0.000
 1266.00  0.089  0.000
 1267.00  0.106  0.000
 1268.00  0.126  0.000
 1269.00  0.146  0.000
 1270.00  0.164  0.000
 1271.00  0.174  0.000
 1272.00  0.173  0.000
 1273.00  0.161  0.000
 1274.00  0.142  0.000
 1275.00  0.121  0.000
 1276.00  0.102  0.000
 1277.00  0.085  0.000
 1278.00  0.072  0.000
 1279.00  0.062  0.000
 1280.00  0.053  0.001
 1281.00  0.047  0.001
 1282.00  0.042  0.001
 1283.00  0.038  0.001
 1284.00  0.034  0.001
 1285.00  0.032  0.001
 1286.00  0.030  0.001
 1287.00  0.028  0.001
 1288.00  0.027  0.001
 1289.00  0.026  0.001
 1290.00  0.025  0.001
 1291.00  0.024  0.001
 1292.00  0.024  0.001
 1293.00  0.024  0.001
 1294.00  0.024  0.001
 1295.00  0.024  0.001
 1296.00  0.024  0.001
 1297.00  0.024  0.001
 1298.00  0.025  0.001
 1299.00  0.025  0.001
 1300.00  0.026  0.001
 1301.00  0.027  0.001
 1302.00  0.027  0.001
 1303.00  0.029  0.001
 1304.00  0.030  0.001
 1305.00  0.031  0.001
 1306.00  0.033  0.001
 1307.00  0.035  0.002
 1308.00  0.037  0.002
 1309.00  0.039  0.002
 1310.00  0.042  0.002
 1311.00  0.046  0.002
 1312.00  0.049  0.002
 1313.00  0.054  0.002
 1314.00  0.059  0.003
 1315.00  0.065  0.003
 1316.00  0.073  0.003
 1317.00  0.082  0.004
 1318.00  0.093  0.004
 1319.00  0.106  0.005
 1320.00  0.122  0.006
 1321.00  0.143  0.007
 1322.00  0.168  0.008
 1323.00  0.200  0.009
 1324.00  0.241  0.011
 1325.00  0.290  0.014
 1326.00  0.346  0.016
 1327.00  0.405  0.019
 1328.00  0.455  0.021
 1329.00  0.480  0.023
 1330.00  0.473  0.023
 1331.00  0.437  0.021
 1332.00  0.385  0.019
 1333.00  0.332  0.017
 1334.00  0.284  0.015
 1335.00  0.246  0.013
 1336.00  0.217  0.012
 1337.00  0.196  0.011
 1338.00  0.181  0.011
 1339.00  0.173  0.012
 1340.00  0.169  0.012
 1341.00  0.170  0.012
 1342.00  0.176  0.012
 1343.00  0.186  0.012
 1344.00  0.203  0.011
 1345.00  0.226  0.010
 1346.00  0.257  0.010
 1347.00  0.299  0.009
 1348.00  0.353  0.009
 1349.00  0.421  0.009
 1350.00  0.503  0.010
 1351.00  0.593  0.011
 1352.00  0.676  0.011
 1353.00  0.728  0.012
 1354.00  0.729  0.012
 1355.00  0.678  0.011
 1356.00  0.594  0.010
 1357.00  0.501  0.008
 1358.00  0.414  0.007
 1359.00  0.341  0.006
 1360.00  0.282  0.005
 1361.00  0.235  0.005
 1362.00  0.198  0.004
 1363.00  0.168  0.004
 1364.00  0.144  0.004
 1365.00  0.125  0.003
 1366.00  0.109  0.003
 1367.00  0.097  0.003
 1368.00  0.086  0.003
 1369.00  0.077  0.003
 1370.00  0.069  0.003
 1371.00  0.063  0.003
 1372.00  0.057  0.003
 1373.00  0.052  0.003
 1374.00  0.048  0.004
 1375.00  0.044  0.004
 1376.00  0.041  0.004
 1377.00  0.038  0.004
 1378.00  0.036  0.005
 1379.00  0.033  0.005
 1380.00  0.031  0.006
 1381.00  0.029  0.007
 1382.00  0.028  0.008
 1383.00  0.026  0.009
 1384.00  0.025  0.011
 1385.00  0.024  0.013
 1386.00  0.023  0.015
 1387.00  0.022  0.019
 1388.00  0.021  0.022
 1389.00  0.020  0.027
 1390.00  0.019  0.031
 1391.00  0.018  0.034
 1392.00  0.018  0.034
 1393.00  0.017  0.032
 1394.00  0.016  0.028
 1395.00  0.016  0.024
 1396.00  0.015  0.020
 1397.00  0.015  0.016
 1398.00  0.015  0.013
 1399.00  0.014  0.011
 1400.00  0.014  0.009
 1401.00  0.014  0.008
 1402.00  0.014  0.007
 1403.00  0.013  0.006
 1404.00  0.013  0.005
 1405.00  0.013  0.005
 1406.00  0.013  0.004
 1407.00  0.013  0.004
 1408.00  0.014  0.003
 1409.00  0.014  0.003
 1410.00  0.014  0.003
 1411.00  0.015  0.002
 1412.00  0.015  0.002
 1413.00  0.016  0.002
 1414.00  0.017  0.002
 1415.00  0.018  0.002
 1416.00  0.020  0.002
 1417.00  0.022  0.002
 1418.00  0.025  0.001
 1419.00  0.028  0.001
 1420.00  0.032  0.001
 1421.00  0.038  0.001
 1422.00  0.044  0.001
 1423.00  0.052  0.001
 1424.00  0.059  0.001
 1425.00  0.063  0.001
 1426.00  0.064  0.001
 1427.00  0.060  0.001
 1428.00  0.053  0.001
 1429.00  0.046  0.001
 1430.00  0.039  0.001
 1431.00  0.033  0.001
 1432.00  0.028  0.001
 1433.00  0.024  0.001
 1434.00  0.021  0.001
 1435.00  0.018  0.001
 1436.00  0.016  0.001
 1437.00  0.015  0.001
 1438.00  0.013  0.001
 1439.00  0.012  0.001
 1440.00  0.011  0.001
 1441.00  0.010  0.001
 1442.00  0.010  0.001
 1443.00  0.009  0.001
 1444.00  0.009  0.001
 1445.00  0.008  0.000
 1446.00  0.008  0.000
 1447.00  0.008  0.000
 1448.00  0.007  0.000
 1449.00  0.007  0.000
 1450.00  0.007  0.000
 1451.00  0.007  0.000
 1452.00  0.006  0.000
 1453.00  0.006  0.000
 1454.00  0.006  0.000
 1455.00  0.006  0.000
 1456.00  0.006  0.000
 1457.00  0.006  0.000
 1458.00  0.006  0.000
 1459.00  0.006  0.000
 1460.00  0.005  0.000
 1461.00  0.005  0.000
 1462.00  0.005  0.000
 1463.00  0.005  0.000
 1464.00  0.005  0.000
 1465.00  0.005  0.000
 1466.00  0.005  0.000
 1467.00  0.005  0.000
 1468.00  0.005  0.000
 1469.00  0.005  0.000
 1470.00  0.005  0.000
 1471.00  0.005  0.000
 1472.00  0.005  0.000
 1473.00  0.005  0.000
 1474.00  0.005  0.000
 1475.00  0.005  0.000
 1476.00  0.005  0.000
 1477.00  0.005  0.000
 1478.00  0.005  0.000
 1479.00  0.005  0.000
 1480.00  0.005  0.000
 1481.00  0.005  0.000
 1482.00  0.005  0.000
 1483.00  0.005  0.000
 1484.00  0.005  0.000
 1485.00  0.005  0.000
 1486.00  0.005  0.000
 1487.00  0.005  0.000
 1488.00  0.005  0.000
 1489.00  0.005  0.000
 1490.00  0.005  0.000
 1491.00  0.005  0.000
 1492.00  0.005  0.000
 1493.00  0.005  0.000
 1494.00  0.005  0.000
 1495.00  0.005  0.000
 1496.00  0.005  0.000
 1497.00  0.005  0.000
 1498.00  0.005  0.000
 1499.00  0.005  0.000
 1500.00  0.005  0.000
 1501.00  0.005  0.000
 1502.00  0.005  0.000
 1503.00  0.005  0.000
 1504.00  0.005  0.000
 1505.00  0.005  0.000
 1506.00  0.006  0.000
 1507.00  0.006  0.000
 1508.00  0.006  0.001
 1509.00  0.006  0.001
 1510.00  0.006  0.001
 1511.00  0.006  0.001
 1512.00  0.006  0.001
 1513.00  0.006  0.001
 1514.00  0.007  0.001
 1515.00  0.007  0.001
 1516.00  0.007  0.001
 1517.00  0.007  0.001
 1518.00  0.008  0.001
 1519.00  0.008  0.001
 1520.00  0.008  0.001
 1521.00  0.009  0.001
 1522.00  0.009  0.001
 1523.00  0.010  0.001
 1524.00  0.010  0.002
 1525.00  0.011  0.002
 1526.00  0.012  0.002
 1527.00  0.013  0.002
 1528.00  0.015  0.003
 1529.00  0.016  0.003
 1530.00  0.018  0.004
 1531.00  0.021  0.004
 1532.00  0.024  0.005
 1533.00  0.028  0.006
 1534.00  0.032  0.007
 1535.00  0.036  0.008
 1536.00  0.038  0.008
 1537.00  0.037  0.008
 1538.00  0.035  0.008
 1539.00  0.032  0.007
 1540.00  0.029  0.006
 1541.00  0.026  0.005
 1542.00  0.023  0.005
 1543.00  0.022  0.004
 1544.00  0.021  0.004
 1545.00  0.020  0.004
 1546.00  0.020  0.003
 1547.00  0.020  0.004
 1548.00  0.021  0.004
 1549.00  0.022  0.004
 1550.00  0.023  0.004
 1551.00  0.024  0.005
 1552.00  0.024  0.006
 1553.00  0.024  0.006
 1554.00  0.023  0.008
 1555.00  0.022  0.009
 1556.00  0.022  0.011
 1557.00  0.021  0.012
 1558.00  0.021  0.013
 1559.00  0.021  0.013
 1560.00  0.021  0.012
 1561.00  0.022  0.010
 1562.00  0.022  0.009
 1563.00  0.023  0.007
 1564.00  0.024  0.006
 1565.00  0.025  0.005
 1566.00  0.027  0.004
 1567.00  0.028  0.003
 1568.00  0.030  0.003
 1569.00  0.032  0.003
 1570.00  0.034  0.002
 1571.00  0.037  0.002
 1572.00  0.040  0.002
 1573.00  0.044  0.002
 1574.00  0.048  0.001
 1575.00  0.053  0.001
 1576.00  0.059  0.001
 1577.00  0.066  0.001
 1578.00  0.074  0.001
 1579.00  0.085  0.001
 1580.00  0.097  0.001
 1581.00  0.112  0.001
 1582.00  0.132  0.001
 1583.00  0.156  0.001
 1584.00  0.186  0.001
 1585.00  0.225  0.001
 1586.00  0.272  0.001
 1587.00  0.329  0.001
 1588.00  0.391  0.001
 1589.00  0.452  0.000
 1590.00  0.495  0.000
 1591.00  0.506  0.000
 1592.00  0.480  0.000
 1593.00  0.427  0.000
 1594.00  0.364  0.000
 1595.00  0.304  0.000
 1596.00  0.252  0.000
 1597.00  0.209  0.000
 1598.00  0.176  0.000
 1599.00  0.150  0.000
 1600.00  0.129  0.000
 1601.00  0.113  0.000
 1602.00  0.100  0.000
 1603.00  0.090  0.000
 1604.00  0.082  0.000
 1605.00  0.075  0.000
 1606.00  0.070  0.000
 1607.00  0.066  0.000
 1608.00  0.063  0.000
 1609.00  0.061  0.000
 1610.00  0.059  0.000
 1611.00  0.058  0.000
 1612.00  0.058  0.000
 1613.00  0.058  0.000
 1614.00  0.059  0.000
 1615.00  0.060  0.000
 1616.00  0.062  0.000
 1617.00  0.065  0.000
 1618.00  0.068  0.000
 1619.00  0.073  0.000
 1620.00  0.078  0.000
 1621.00  0.085  0.000
 1622.00  0.093  0.000
 1623.00  0.104  0.000
 1624.00  0.116  0.000
 1625.00  0.131  0.000
 1626.00  0.148  0.000
 1627.00  0.166  0.000
 1628.00  0.186  0.000
 1629.00  0.207  0.000
 1630.00  0.227  0.000
 1631.00  0.249  0.000
 1632.00  0.273  0.000
 1633.00  0.303  0.000
 1634.00  0.343  0.000
 1635.00  0.394  0.000
 1636.00  0.458  0.000
 1637.00  0.534  0.000
 1638.00  0.619  0.000
 1639.00  0.704  0.000
 1640.00  0.778  0.000
 1641.00  0.826  0.000
 1642.00  0.831  0.000
 1643.00  0.787  0.000
 1644.00  0.703  0.000
 1645.00  0.601  0.000
 1646.00  0.502  0.000
 1647.00  0.414  0.000
 1648.00  0.342  0.000
 1649.00  0.284  0.000
 1650.00  0.237  0.000
 1651.00  0.201  0.000
 1652.00  0.171  0.000
 1653.00  0.148  0.000
 1654.00  0.129  0.000
 1655.00  0.113  0.000
 1656.00  0.100  0.000
 1657.00  0.089  0.000
 1658.00  0.080  0.000
 1659.00  0.072  0.000
 1660.00  0.065  0.000
 1661.00  0.059  0.000
 1662.00  0.054  0.000
 1663.00  0.050  0.000
 1664.00  0.046  0.000
 1665.00  0.042  0.000
 1666.00  0.039  0.000
 1667.00  0.036  0.000
 1668.00  0.034  0.000
 1669.00  0.032  0.000
 1670.00  0.030  0.000
 1671.00  0.028  0.000
 1672.00  0.026  0.000
 1673.00  0.025  0.000
 1674.00  0.023  0.000
 1675.00  0.022  0.000
 1676.00  0.021  0.000
 1677.00  0.020  0.000
 1678.00  0.019  0.000
 1679.00  0.018  0.000
 1680.00  0.017  0.000
 1681.00  0.017  0.000
 1682.00  0.016  0.000
 1683.00  0.015  0.000
 1684.00  0.014  0.000
 1685.00  0.014  0.000
 1686.00  0.013  0.000
 1687.00  0.013  0.000
 1688.00  0.012  0.000
 1689.00  0.012  0.000
 1690.00  0.011  0.000
 1691.00  0.011  0.000
 1692.00  0.011  0.000
 1693.00  0.010  0.000
 1694.00  0.010  0.000
 1695.00  0.010  0.000
 1696.00  0.009  0.000
 1697.00  0.009  0.000
 1698.00  0.009  0.000
 1699.00  0.008  0.000
 1700.00  0.008  0.000
 1701.00  0.008  0.000
 1702.00  0.008  0.000
 1703.00  0.008  0.000
 1704.00  0.007  0.000
 1705.00  0.007  0.000
 1706.00  0.007  0.000
 1707.00  0.007  0.000
 1708.00  0.007  0.000
 1709.00  0.006  0.000
 1710.00  0.006  0.000
 1711.00  0.006  0.000
 1712.00  0.006  0.000
 1713.00  0.006  0.000
 1714.00  0.006  0.000
 1715.00  0.005  0.000
 1716.00  0.005  0.000
 1717.00  0.005  0.000
 1718.00  0.005  0.000
 1719.00  0.005  0.000
 1720.00  0.005  0.000
 1721.00  0.005  0.000
 1722.00  0.005  0.000
 1723.00  0.005  0.000
 1724.00  0.005  0.000
 1725.00  0.004  0.000
 1726.00  0.004  0.000
 1727.00  0.004  0.000
 1728.00  0.004  0.000
 1729.00  0.004  0.000
 1730.00  0.004  0.000
 1731.00  0.004  0.000
 1732.00  0.004  0.000
 1733.00  0.004  0.000
 1734.00  0.004  0.000
 1735.00  0.004  0.000
 1736.00  0.004  0.000
 1737.00  0.004  0.000
 1738.00  0.003  0.000
 1739.00  0.003  0.000
 1740.00  0.003  0.000
 1741.00  0.003  0.000
 1742.00  0.003  0.000
 1743.00  0.003  0.000
 1744.00  0.003  0.000
 1745.00  0.003  0.000
 1746.00  0.003  0.000
 1747.00  0.003  0.000
 1748.00  0.003  0.000
 1749.00  0.003  0.000
 1750.00  0.003  0.000
 1751.00  0.003  0.000
 1752.00  0.003  0.000
 1753.00  0.003  0.000
 1754.00  0.003  0.000
 1755.00  0.003  0.000
 1756.00  0.003  0.000
 1757.00  0.003  0.000
 1758.00  0.003  0.000
 1759.00  0.002  0.000
 1760.00  0.002  0.000
 1761.00  0.002  0.000
 1762.00  0.002  0.000
 1763.00  0.002  0.000
 1764.00  0.002  0.000
 1765.00  0.002  0.000
 1766.00  0.002  0.000
 1767.00  0.002  0.000
 1768.00  0.002  0.000
 1769.00  0.002  0.000
 1770.00  0.002  0.000
 1771.00  0.002  0.000
 1772.00  0.002  0.000
 1773.00  0.002  0.000
 1774.00  0.002  0.000
 1775.00  0.002  0.000
 1776.00  0.002  0.000
 1777.00  0.002  0.000
 1778.00  0.002  0.000
 1779.00  0.002  0.000
 1780.00  0.002  0.000
 1781.00  0.002  0.000
 1782.00  0.002  0.000
 1783.00  0.002  0.000
 1784.00  0.002  0.000
 1785.00  0.002  0.000
 1786.00  0.002  0.000
 1787.00  0.002  0.000
 1788.00  0.002  0.000
 1789.00  0.002  0.000
 1790.00  0.002  0.000
 1791.00  0.002  0.000
 1792.00  0.002  0.000
 1793.00  0.002  0.000
 1794.00  0.002  0.000
 1795.00  0.002  0.000
 1796.00  0.002  0.000
 1797.00  0.002  0.000
 1798.00  0.002  0.000
 1799.00  0.002  0.000
 1800.00  0.002  0.000
 1801.00  0.001  0.000
 1802.00  0.001  0.000
 1803.00  0.001  0.000
 1804.00  0.001  0.000
 1805.00  0.001  0.000
 1806.00  0.001  0.000
 1807.00  0.001  0.000
 1808.00  0.001  0.000
 1809.00  0.001  0.000
 1810.00  0.001  0.000
 1811.00  0.001  0.000
 1812.00  0.001  0.000
 1813.00  0.001  0.000
 1814.00  0.001  0.000
 1815.00  0.001  0.000
 1816.00  0.001  0.000
 1817.00  0.001  0.000
 1818.00  0.001  0.000
 1819.00  0.001  0.000
 1820.00  0.001  0.000
 1821.00  0.001  0.000
 1822.00  0.001  0.000
 1823.00  0.001  0.000
 1824.00  0.001  0.000
 1825.00  0.001  0.000
 1826.00  0.001  0.000
 1827.00  0.001  0.000
 1828.00  0.001  0.000
 1829.00  0.001  0.000
 1830.00  0.001  0.000
 1831.00  0.001  0.000
 1832.00  0.001  0.000
 1833.00  0.001  0.000
 1834.00  0.001  0.000
 1835.00  0.001  0.000
 1836.00  0.001  0.000
 1837.00  0.001  0.000
 1838.00  0.001  0.000
 1839.00  0.001  0.000
 1840.00  0.001  0.000
 1841.00  0.001  0.000
 1842.00  0.001  0.000
 1843.00  0.001  0.000
 1844.00  0.001  0.000
 1845.00  0.001  0.000
 1846.00  0.001  0.000
 1847.00  0.001  0.000
 1848.00  0.001  0.000
 1849.00  0.001  0.000
 1850.00  0.001  0.000
 1851.00  0.001  0.000
 1852.00  0.001  0.000
 1853.00  0.001  0.000
 1854.00  0.001  0.000
 1855.00  0.001  0.000
 1856.00  0.001  0.000
 1857.00  0.001  0.000
 1858.00  0.001  0.000
 1859.00  0.001  0.000
 1860.00  0.001  0.000
 1861.00  0.001  0.000
 1862.00  0.001  0.000
 1863.00  0.001  0.000
 1864.00  0.001  0.000
 1865.00  0.001  0.000
 1866.00  0.001  0.000
 1867.00  0.001  0.000
 1868.00  0.001  0.000
 1869.00  0.001  0.000
 1870.00  0.001  0.000
 1871.00  0.001  0.000
 1872.00  0.001  0.000
 1873.00  0.001  0.000
 1874.00  0.001  0.000
 1875.00  0.001  0.000
 1876.00  0.001  0.000
 1877.00  0.001  0.000
 1878.00  0.001  0.000
 1879.00  0.001  0.000
 1880.00  0.001  0.000
 1881.00  0.001  0.000
 1882.00  0.001  0.000
 1883.00  0.001  0.000
 1884.00  0.001  0.000
 1885.00  0.001  0.000
 1886.00  0.001  0.000
 1887.00  0.001  0.000
 1888.00  0.001  0.000
 1889.00  0.001  0.000
 1890.00  0.001  0.000
 1891.00  0.001  0.000
 1892.00  0.001  0.000
 1893.00  0.001  0.000
 1894.00  0.001  0.000
 1895.00  0.001  0.000
 1896.00  0.001  0.000
 1897.00  0.001  0.000
 1898.00  0.001  0.000
 1899.00  0.001  0.000
 1900.00  0.001  0.000
 1901.00  0.001  0.000
 1902.00  0.001  0.000
 1903.00  0.001  0.000
 1904.00  0.001  0.000
 1905.00  0.001  0.000
 1906.00  0.001  0.000
 1907.00  0.001  0.000
 1908.00  0.001  0.000
 1909.00  0.001  0.000
 1910.00  0.001  0.000
 1911.00  0.001  0.000
 1912.00  0.001  0.000
 1913.00  0.001  0.000
 1914.00  0.001  0.000
 1915.00  0.001  0.000
 1916.00  0.001  0.000
 1917.00  0.001  0.000
 1918.00  0.001  0.000
 1919.00  0.001  0.000
 1920.00  0.001  0.000
 1921.00  0.001  0.000
 1922.00  0.001  0.000
 1923.00  0.001  0.000
 1924.00  0.001  0.000
 1925.00  0.001  0.000
 1926.00  0.001  0.000
 1927.00  0.001  0.000
 1928.00  0.001  0.000
 1929.00  0.001  0.000
 1930.00  0.001  0.000
 1931.00  0.001  0.000
 1932.00  0.001  0.000
 1933.00  0.001  0.000
 1934.00  0.001  0.000
 1935.00  0.001  0.000
 1936.00  0.001  0.000
 1937.00  0.001  0.000
 1938.00  0.001  0.000
 1939.00  0.001  0.000
 1940.00  0.001  0.000
 1941.00  0.001  0.000
 1942.00  0.001  0.000
 1943.00  0.001  0.000
 1944.00  0.001  0.000
 1945.00  0.001  0.000
 1946.00  0.001  0.000
 1947.00  0.001  0.000
 1948.00  0.001  0.000
 1949.00  0.001  0.000
 1950.00  0.001  0.000
 1951.00  0.001  0.000
 1952.00  0.001  0.000
 1953.00  0.001  0.000
 1954.00  0.001  0.000
 1955.00  0.001  0.000
 1956.00  0.001  0.000
 1957.00  0.001  0.000
 1958.00  0.001  0.000
 1959.00  0.000  0.000
 1960.00  0.000  0.000
 1961.00  0.000  0.000
 1962.00  0.000  0.000
 1963.00  0.000  0.000
 1964.00  0.000  0.000
 1965.00  0.000  0.000
 1966.00  0.000  0.000
 1967.00  0.000  0.000
 1968.00  0.000  0.000
 1969.00  0.000  0.000
 1970.00  0.000  0.000
 1971.00  0.000  0.000
 1972.00  0.000  0.000
 1973.00  0.000  0.000
 1974.00  0.000  0.000
 1975.00  0.000  0.000
 1976.00  0.000  0.000
 1977.00  0.000  0.000
 1978.00  0.000  0.000
 1979.00  0.000  0.000
 1980.00  0.000  0.000
 1981.00  0.000  0.000
 1982.00  0.000  0.000
 1983.00  0.000  0.000
 1984.00  0.000  0.000
 1985.00  0.000  0.000
 1986.00  0.000  0.000
 1987.00  0.000  0.000
 1988.00  0.000  0.000
 1989.00  0.000  0.000
 1990.00  0.000  0.000
 1991.00  0.000  0.000
 1992.00  0.000  0.000
 1993.00  0.000  0.000
 1994.00  0.000  0.000
 1995.00  0.000  0.000
 1996.00  0.000  0.000
 1997.00  0.000  0.000
 1998.00  0.000  0.000
 1999.00  0.000  0.000
 2000.00  0.000  0.000
 2001.00  0.000  0.000
 2002.00  0.000  0.000
 2003.00  0.000  0.000
 2004.00  0.000  0.000
 2005.00  0.000  0.000
 2006.00  0.000  0.000
 2007.00  0.000  0.000
 2008.00  0.000  0.000
 2009.00  0.000  0.000
 2010.00  0.000  0.000
 2011.00  0.000  0.000
 2012.00  0.000  0.000
 2013.00  0.000  0.000
 2014.00  0.000  0.000
 2015.00  0.000  0.000
 2016.00  0.000  0.000
 2017.00  0.000  0.000
 2018.00  0.000  0.000
 2019.00  0.000  0.000
 2020.00  0.000  0.000
 2021.00  0.000  0.000
 2022.00  0.000  0.000
 2023.00  0.000  0.000
 2024.00  0.000  0.000
 2025.00  0.000  0.000
 2026.00  0.000  0.000
 2027.00  0.000  0.000
 2028.00  0.000  0.000
 2029.00  0.000  0.000
 2030.00  0.000  0.000
 2031.00  0.000  0.000
 2032.00  0.000  0.000
 2033.00  0.000  0.000
 2034.00  0.000  0.000
 2035.00  0.000  0.000
 2036.00  0.000  0.000
 2037.00  0.000  0.000
 2038.00  0.000  0.000
 2039.00  0.000  0.000
 2040.00  0.000  0.000
 2041.00  0.000  0.000
 2042.00  0.000  0.000
 2043.00  0.000  0.000
 2044.00  0.000  0.000
 2045.00  0.000  0.000
 2046.00  0.000  0.000
 2047.00  0.000  0.000
 2048.00  0.000  0.000
 2049.00  0.000  0.000
 2050.00  0.000  0.000
 2051.00  0.000  0.000
 2052.00  0.000  0.000
 2053.00  0.000  0.000
 2054.00  0.000  0.000
 2055.00  0.000  0.000
 2056.00  0.000  0.000
 2057.00  0.000  0.000
 2058.00  0.000  0.000
 2059.00  0.000  0.000
 2060.00  0.000  0.000
 2061.00  0.000  0.000
 2062.00  0.000  0.000
 2063.00  0.000  0.000
 2064.00  0.000  0.000
 2065.00  0.000  0.000
 2066.00  0.000  0.000
 2067.00  0.000  0.000
 2068.00  0.000  0.000
 2069.00  0.000  0.000
 2070.00  0.000  0.000
 2071.00  0.000  0.000
 2072.00  0.000  0.000
 2073.00  0.000  0.000
 2074.00  0.000  0.000
 2075.00  0.000  0.000
 2076.00  0.000  0.000
 2077.00  0.000  0.000
 2078.00  0.000  0.000
 2079.00  0.000  0.000
 2080.00  0.000  0.000
 2081.00  0.000  0.000
 2082.00  0.000  0.000
 2083.00  0.000  0.000
 2084.00  0.000  0.000
 2085.00  0.000  0.000
 2086.00  0.000  0.000
 2087.00  0.000  0.000
 2088.00  0.000  0.000
 2089.00  0.000  0.000
 2090.00  0.000  0.000
 2091.00  0.000  0.000
 2092.00  0.000  0.000
 2093.00  0.000  0.000
 2094.00  0.000  0.000
 2095.00  0.000  0.000
 2096.00  0.000  0.000
 2097.00  0.000  0.000
 2098.00  0.000  0.000
 2099.00  0.000  0.000
 2100.00  0.000  0.000
 2101.00  0.000  0.000
 2102.00  0.000  0.000
 2103.00  0.000  0.000
 2104.00  0.000  0.000
 2105.00  0.000  0.000
 2106.00  0.000  0.000
 2107.00  0.000  0.000
 2108.00  0.000  0.000
 2109.00  0.000  0.000
 2110.00  0.000  0.000
 2111.00  0.000  0.000
 2112.00  0.000  0.000
 2113.00  0.000  0.000
 2114.00  0.000  0.000
 2115.00  0.000  0.000
 2116.00  0.000  0.000
 2117.00  0.000  0.000
 2118.00  0.000  0.000
 2119.00  0.000  0.000
 2120.00  0.000  0.000
 2121.00  0.000  0.000
 2122.00  0.000  0.000
 2123.00  0.000  0.000
 2124.00  0.000  0.000
 2125.00  0.000  0.000
 2126.00  0.000  0.000
 2127.00  0.000  0.000
 2128.00  0.000  0.000
 2129.00  0.000  0.000
 2130.00  0.000  0.000
 2131.00  0.000  0.000
 2132.00  0.000  0.000
 2133.00  0.000  0.000
 2134.00  0.000  0.000
 2135.00  0.000  0.000
 2136.00  0.000  0.000
 2137.00  0.000  0.000
 2138.00  0.000  0.000
 2139.00  0.000  0.000
 2140.00  0.000  0.000
 2141.00  0.000  0.000
 2142.00  0.000  0.000
 2143.00  0.000  0.000
 2144.00  0.000  0.000
 2145.00  0.000  0.000
 2146.00  0.000  0.000
 2147.00  0.000  0.000
 2148.00  0.000  0.000
 2149.00  0.000  0.000
 2150.00  0.000  0.000
 2151.00  0.000  0.000
 2152.00  0.000  0.000
 2153.00  0.000  0.000
 2154.00  0.000  0.000
 2155.00  0.000  0.000
 2156.00  0.000  0.000
 2157.00  0.000  0.000
 2158.00  0.000  0.000
 2159.00  0.000  0.000
 2160.00  0.000  0.000
 2161.00  0.000  0.000
 2162.00  0.000  0.000
 2163.00  0.000  0.000
 2164.00  0.000  0.000
 2165.00  0.000  0.000
 2166.00  0.000  0.000
 2167.00  0.000  0.000
 2168.00  0.000  0.000
 2169.00  0.000  0.000
 2170.00  0.000  0.000
 2171.00  0.000  0.000
 2172.00  0.000  0.000
 2173.00  0.000  0.000
 2174.00  0.000  0.000
 2175.00  0.000  0.000
 2176.00  0.000  0.000
 2177.00  0.000  0.000
 2178.00  0.000  0.000
 2179.00  0.000  0.000
 2180.00  0.000  0.000
 2181.00  0.000  0.000
 2182.00  0.000  0.000
 2183.00  0.000  0.000
 2184.00  0.000  0.000
 2185.00  0.000  0.000
 2186.00  0.000  0.000
 2187.00  0.000  0.000
 2188.00  0.000  0.000
 2189.00  0.000  0.000
 2190.00  0.000  0.000
 2191.00  0.000  0.000
 2192.00  0.000  0.000
 2193.00  0.000  0.000
 2194.00  0.000  0.000
 2195.00  0.000  0.000
 2196.00  0.000  0.000
 2197.00  0.000  0.000
 2198.00  0.000  0.000
 2199.00  0.000  0.000
 2200.00  0.000  0.000
 2201.00  0.000  0.000
 2202.00  0.000  0.000
 2203.00  0.000  0.000
 2204.00  0.000  0.000
 2205.00  0.000  0.000
 2206.00  0.000  0.000
 2207.00  0.000  0.000
 2208.00  0.000  0.000
 2209.00  0.000  0.000
 2210.00  0.000  0.000
 2211.00  0.000  0.000
 2212.00  0.000  0.000
 2213.00  0.000  0.000
 2214.00  0.000  0.000
 2215.00  0.000  0.000
 2216.00  0.000  0.000
 2217.00  0.000  0.000
 2218.00  0.000  0.000
 2219.00  0.000  0.000
 2220.00  0.000  0.000
 2221.00  0.000  0.000
 2222.00  0.000  0.000
 2223.00  0.000  0.000
 2224.00  0.000  0.000
 2225.00  0.000  0.000
 2226.00  0.000  0.000
 2227.00  0.000  0.000
 2228.00  0.000  0.000
 2229.00  0.000  0.000
 2230.00  0.000  0.000
 2231.00  0.000  0.000
 2232.00  0.000  0.000
 2233.00  0.000  0.000
 2234.00  0.000  0.000
 2235.00  0.000  0.000
 2236.00  0.000  0.000
 2237.00  0.000  0.000
 2238.00  0.000  0.000
 2239.00  0.000  0.000
 2240.00  0.000  0.000
 2241.00  0.000  0.000
 2242.00  0.000  0.000
 2243.00  0.000  0.000
 2244.00  0.000  0.000
 2245.00  0.000  0.000
 2246.00  0.000  0.000
 2247.00  0.000  0.000
 2248.00  0.000  0.000
 2249.00  0.000  0.000
 2250.00  0.000  0.000
 2251.00  0.000  0.000
 2252.00  0.000  0.000
 2253.00  0.000  0.000
 2254.00  0.000  0.000
 2255.00  0.000  0.000
 2256.00  0.000  0.000
 2257.00  0.000  0.000
 2258.00  0.000  0.000
 2259.00  0.000  0.000
 2260.00  0.000  0.000
 2261.00  0.000  0.000
 2262.00  0.000  0.000
 2263.00  0.000  0.000
 2264.00  0.000  0.000
 2265.00  0.000  0.000
 2266.00  0.000  0.000
 2267.00  0.000  0.000
 2268.00  0.000  0.000
 2269.00  0.000  0.000
 2270.00  0.000  0.000
 2271.00  0.000  0.000
 2272.00  0.000  0.000
 2273.00  0.000  0.000
 2274.00  0.000  0.000
 2275.00  0.000  0.000
 2276.00  0.000  0.000
 2277.00  0.000  0.000
 2278.00  0.000  0.000
 2279.00  0.000  0.000
 2280.00  0.000  0.000
 2281.00  0.000  0.000
 2282.00  0.000  0.000
 2283.00  0.000  0.000
 2284.00  0.000  0.000
 2285.00  0.000  0.000
 2286.00  0.000  0.000
 2287.00  0.000  0.000
 2288.00  0.000  0.000
 2289.00  0.000  0.000
 2290.00  0.000  0.000
 2291.00  0.000  0.000
 2292.00  0.000  0.000
 2293.00  0.000  0.000
 2294.00  0.000  0.000
 2295.00  0.000  0.000
 2296.00  0.000  0.000
 2297.00  0.000  0.000
 2298.00  0.000  0.000
 2299.00  0.000  0.000
 2300.00  0.000  0.000
 2301.00  0.000  0.000
 2302.00  0.000  0.000
 2303.00  0.000  0.000
 2304.00  0.000  0.000
 2305.00  0.000  0.000
 2306.00  0.000  0.000
 2307.00  0.000  0.000
 2308.00  0.000  0.000
 2309.00  0.000  0.000
 2310.00  0.000  0.000
 2311.00  0.000  0.000
 2312.00  0.000  0.000
 2313.00  0.000  0.000
 2314.00  0.000  0.000
 2315.00  0.000  0.000
 2316.00  0.000  0.000
 2317.00  0.000  0.000
 2318.00  0.000  0.000
 2319.00  0.000  0.000
 2320.00  0.000  0.000
 2321.00  0.000  0.000
 2322.00  0.000  0.000
 2323.00  0.000  0.000
 2324.00  0.000  0.000
 2325.00  0.000  0.000
 2326.00  0.000  0.000
 2327.00  0.000  0.000
 2328.00  0.000  0.000
 2329.00  0.000  0.000
 2330.00  0.000  0.000
 2331.00  0.000  0.000
 2332.00  0.000  0.000
 2333.00  0.000  0.000
 2334.00  0.000  0.000
 2335.00  0.000  0.000
 2336.00  0.000  0.000
 2337.00  0.000  0.000
 2338.00  0.000  0.000
 2339.00  0.000  0.000
 2340.00  0.000  0.000
 2341.00  0.000  0.000
 2342.00  0.000  0.000
 2343.00  0.000  0.000
 2344.00  0.000  0.000
 2345.00  0.000  0.000
 2346.00  0.000  0.000
 2347.00  0.000  0.000
 2348.00  0.000  0.000
 2349.00  0.000  0.000
 2350.00  0.000  0.000
 2351.00  0.000  0.000
 2352.00  0.000  0.000
 2353.00  0.000  0.000
 2354.00  0.000  0.000
 2355.00  0.000  0.000
 2356.00  0.000  0.000
 2357.00  0.000  0.000
 2358.00  0.000  0.000
 2359.00  0.000  0.000
 2360.00  0.000  0.000
 2361.00  0.000  0.000
 2362.00  0.000  0.000
 2363.00  0.000  0.000
 2364.00  0.000  0.000
 2365.00  0.000  0.000
 2366.00  0.000  0.000
 2367.00  0.000  0.000
 2368.00  0.000  0.000
 2369.00  0.000  0.000
 2370.00  0.000  0.000
 2371.00  0.000  0.000
 2372.00  0.000  0.000
 2373.00  0.000  0.000
 2374.00  0.000  0.000
 2375.00  0.000  0.000
 2376.00  0.000  0.000
 2377.00  0.000  0.000
 2378.00  0.000  0.000
 2379.00  0.000  0.000
 2380.00  0.000  0.000
 2381.00  0.000  0.000
 2382.00  0.000  0.000
 2383.00  0.000  0.000
 2384.00  0.000  0.000
 2385.00  0.000  0.000
 2386.00  0.000  0.000
 2387.00  0.000  0.000
 2388.00  0.000  0.000
 2389.00  0.000  0.000
 2390.00  0.000  0.000
 2391.00  0.000  0.000
 2392.00  0.000  0.000
 2393.00  0.000  0.000
 2394.00  0.000  0.000
 2395.00  0.000  0.000
 2396.00  0.000  0.000
 2397.00  0.000  0.000
 2398.00  0.000  0.000
 2399.00  0.000  0.000
 2400.00  0.000  0.000
 2401.00  0.000  0.000
 2402.00  0.000  0.000
 2403.00  0.000  0.000
 2404.00  0.000  0.000
 2405.00  0.000  0.000
 2406.00  0.000  0.000
 2407.00  0.000  0.000
 2408.00  0.000  0.000
 2409.00  0.000  0.000
 2410.00  0.000  0.000
 2411.00  0.000  0.000
 2412.00  0.000  0.000
 2413.00  0.000  0.000
 2414.00  0.000  0.000
 2415.00  0.000  0.000
 2416.00  0.000  0.000
 2417.00  0.000  0.000
 2418.00  0.000  0.000
 2419.00  0.000  0.000
 2420.00  0.000  0.000
 2421.00  0.000  0.000
 2422.00  0.000  0.000
 2423.00  0.000  0.000
 2424.00  0.000  0.000
 2425.00  0.000  0.000
 2426.00  0.000  0.000
 2427.00  0.000  0.000
 2428.00  0.000  0.000
 2429.00  0.000  0.000
 2430.00  0.000  0.000
 2431.00  0.000  0.000
 2432.00  0.000  0.000
 2433.00  0.000  0.000
 2434.00  0.000  0.000
 2435.00  0.000  0.000
 2436.00  0.000  0.000
 2437.00  0.000  0.000
 2438.00  0.000  0.000
 2439.00  0.000  0.000
 2440.00  0.000  0.000
 2441.00  0.000  0.000
 2442.00  0.000  0.000
 2443.00  0.000  0.000
 2444.00  0.000  0.000
 2445.00  0.000  0.000
 2446.00  0.000  0.000
 2447.00  0.000  0.000
 2448.00  0.000  0.000
 2449.00  0.000  0.000
 2450.00  0.000  0.000
 2451.00  0.000  0.000
 2452.00  0.000  0.000
 2453.00  0.000  0.000
 2454.00  0.000  0.000
 2455.00  0.000  0.000
 2456.00  0.000  0.000
 2457.00  0.000  0.000
 2458.00  0.000  0.000
 2459.00  0.000  0.000
 2460.00  0.000  0.000
 2461.00  0.000  0.000
 2462.00  0.000  0.000
 2463.00  0.000  0.000
 2464.00  0.000  0.000
 2465.00  0.000  0.000
 2466.00  0.000  0.000
 2467.00  0.000  0.000
 2468.00  0.000  0.000
 2469.00  0.000  0.000
 2470.00  0.000  0.000
 2471.00  0.000  0.000
 2472.00  0.000  0.000
 2473.00  0.000  0.000
 2474.00  0.000  0.000
 2475.00  0.000  0.000
 2476.00  0.000  0.000
 2477.00  0.000  0.000
 2478.00  0.000  0.000
 2479.00  0.000  0.000
 2480.00  0.000  0.000
 2481.00  0.000  0.000
 2482.00  0.000  0.000
 2483.00  0.000  0.000
 2484.00  0.000  0.000
 2485.00  0.000  0.000
 2486.00  0.000  0.000
 2487.00  0.000  0.000
 2488.00  0.000  0.000
 2489.00  0.000  0.000
 2490.00  0.000  0.000
 2491.00  0.000  0.000
 2492.00  0.000  0.000
 2493.00  0.000  0.000
 2494.00  0.000  0.000
 2495.00  0.000  0.000
 2496.00  0.000  0.000
 2497.00  0.000  0.000
 2498.00  0.000  0.000
 2499.00  0.000  0.000
 2500.00  0.000  0.000
 2501.00  0.000  0.000
 2502.00  0.000  0.000
 2503.00  0.000  0.000
 2504.00  0.000  0.000
 2505.00  0.000  0.000
 2506.00  0.000  0.000
 2507.00  0.000  0.000
 2508.00  0.000  0.000
 2509.00  0.000  0.000
 2510.00  0.000  0.000
 2511.00  0.000  0.000
 2512.00  0.000  0.000
 2513.00  0.000  0.000
 2514.00  0.000  0.000
 2515.00  0.000  0.000
 2516.00  0.000  0.000
 2517.00  0.000  0.000
 2518.00  0.000  0.000
 2519.00  0.000  0.000
 2520.00  0.000  0.000
 2521.00  0.000  0.000
 2522.00  0.000  0.000
 2523.00  0.000  0.000
 2524.00  0.000  0.000
 2525.00  0.000  0.000
 2526.00  0.000  0.000
 2527.00  0.000  0.000
 2528.00  0.000  0.000
 2529.00  0.000  0.000
 2530.00  0.000  0.000
 2531.00  0.000  0.000
 2532.00  0.000  0.000
 2533.00  0.000  0.000
 2534.00  0.000  0.000
 2535.00  0.000  0.000
 2536.00  0.000  0.000
 2537.00  0.000  0.000
 2538.00  0.000  0.000
 2539.00  0.000  0.000
 2540.00  0.000  0.000
 2541.00  0.000  0.000
 2542.00  0.000  0.000
 2543.00  0.000  0.000
 2544.00  0.000  0.000
 2545.00  0.000  0.000
 2546.00  0.000  0.000
 2547.00  0.000  0.000
 2548.00  0.000  0.000
 2549.00  0.000  0.000
 2550.00  0.000  0.000
 2551.00  0.000  0.000
 2552.00  0.000  0.000
 2553.00  0.000  0.000
 2554.00  0.000  0.000
 2555.00  0.000  0.000
 2556.00  0.000  0.000
 2557.00  0.000  0.000
 2558.00  0.000  0.000
 2559.00  0.000  0.000
 2560.00  0.000  0.000
 2561.00  0.000  0.000
 2562.00  0.000  0.000
 2563.00  0.000  0.000
 2564.00  0.000  0.000
 2565.00  0.000  0.000
 2566.00  0.000  0.000
 2567.00  0.000  0.000
 2568.00  0.000  0.000
 2569.00  0.000  0.000
 2570.00  0.000  0.000
 2571.00  0.000  0.000
 2572.00  0.000  0.000
 2573.00  0.000  0.000
 2574.00  0.000  0.000
 2575.00  0.000  0.000
 2576.00  0.000  0.000
 2577.00  0.000  0.000
 2578.00  0.000  0.000
 2579.00  0.000  0.000
 2580.00  0.000  0.000
 2581.00  0.000  0.000
 2582.00  0.000  0.000
 2583.00  0.000  0.000
 2584.00  0.000  0.000
 2585.00  0.000  0.000
 2586.00  0.000  0.000
 2587.00  0.000  0.000
 2588.00  0.000  0.000
 2589.00  0.000  0.000
 2590.00  0.000  0.000
 2591.00  0.000  0.000
 2592.00  0.000  0.000
 2593.00  0.000  0.000
 2594.00  0.000  0.000
 2595.00  0.000  0.000
 2596.00  0.000  0.000
 2597.00  0.000  0.000
 2598.00  0.000  0.000
 2599.00  0.000  0.000
 2600.00  0.000  0.000
 2601.00  0.000  0.000
 2602.00  0.000  0.000
 2603.00  0.000  0.000
 2604.00  0.000  0.000
 2605.00  0.000  0.000
 2606.00  0.000  0.000
 2607.00  0.000  0.000
 2608.00  0.000  0.000
 2609.00  0.000  0.000
 2610.00  0.000  0.000
 2611.00  0.000  0.000
 2612.00  0.000  0.000
 2613.00  0.000  0.000
 2614.00  0.000  0.000
 2615.00  0.000  0.000
 2616.00  0.000  0.000
 2617.00  0.000  0.000
 2618.00  0.000  0.000
 2619.00  0.000  0.000
 2620.00  0.000  0.000
 2621.00  0.000  0.000
 2622.00  0.000  0.000
 2623.00  0.000  0.000
 2624.00  0.000  0.000
 2625.00  0.000  0.000
 2626.00  0.000  0.000
 2627.00  0.000  0.000
 2628.00  0.000  0.000
 2629.00  0.000  0.000
 2630.00  0.000  0.000
 2631.00  0.000  0.000
 2632.00  0.000  0.000
 2633.00  0.000  0.000
 2634.00  0.000  0.000
 2635.00  0.000  0.000
 2636.00  0.000  0.000
 2637.00  0.000  0.000
 2638.00  0.000  0.000
 2639.00  0.000  0.000
 2640.00  0.000  0.000
 2641.00  0.000  0.000
 2642.00  0.000  0.000
 2643.00  0.000  0.000
 2644.00  0.000  0.000
 2645.00  0.000  0.000
 2646.00  0.000  0.000
 2647.00  0.000  0.000
 2648.00  0.000  0.000
 2649.00  0.000  0.000
 2650.00  0.000  0.000
 2651.00  0.000  0.000
 2652.00  0.000  0.000
 2653.00  0.000  0.000
 2654.00  0.000  0.000
 2655.00  0.000  0.000
 2656.00  0.000  0.000
 2657.00  0.000  0.000
 2658.00  0.000  0.000
 2659.00  0.000  0.000
 2660.00  0.000  0.000
 2661.00  0.000  0.000
 2662.00  0.000  0.000
 2663.00  0.000  0.000
 2664.00  0.000  0.000
 2665.00  0.000  0.000
 2666.00  0.000  0.000
 2667.00  0.000  0.000
 2668.00  0.000  0.000
 2669.00  0.000  0.000
 2670.00  0.000  0.000
 2671.00  0.000  0.000
 2672.00  0.000  0.000
 2673.00  0.000  0.000
 2674.00  0.000  0.000
 2675.00  0.000  0.000
 2676.00  0.000  0.000
 2677.00  0.000  0.000
 2678.00  0.000  0.000
 2679.00  0.000  0.000
 2680.00  0.000  0.000
 2681.00  0.000  0.000
 2682.00  0.000  0.000
 2683.00  0.000  0.000
 2684.00  0.000  0.000
 2685.00  0.000  0.000
 2686.00  0.000  0.000
 2687.00  0.000  0.000
 2688.00  0.000  0.000
 2689.00  0.000  0.000
 2690.00  0.000  0.000
 2691.00  0.000  0.000
 2692.00  0.000  0.000
 2693.00  0.000  0.000
 2694.00  0.000  0.000
 2695.00  0.000  0.000
 2696.00  0.000  0.000
 2697.00  0.000  0.000
 2698.00  0.000  0.000
 2699.00  0.000  0.000
 2700.00  0.000  0.000
 2701.00  0.000  0.000
 2702.00  0.000  0.000
 2703.00  0.000  0.000
 2704.00  0.000  0.000
 2705.00  0.000  0.000
 2706.00  0.000  0.000
 2707.00  0.000  0.000
 2708.00  0.000  0.000
 2709.00  0.000  0.000
 2710.00  0.000  0.000
 2711.00  0.000  0.000
 2712.00  0.000  0.000
 2713.00  0.000  0.000
 2714.00  0.000  0.000
 2715.00  0.000  0.000
 2716.00  0.000  0.000
 2717.00  0.000  0.000
 2718.00  0.000  0.000
 2719.00  0.000  0.000
 2720.00  0.000  0.000
 2721.00  0.000  0.000
 2722.00  0.000  0.000
 2723.00  0.000  0.000
 2724.00  0.000  0.000
 2725.00  0.000  0.000
 2726.00  0.000  0.000
 2727.00  0.000  0.000
 2728.00  0.000  0.000
 2729.00  0.000  0.000
 2730.00  0.000  0.000
 2731.00  0.000  0.000
 2732.00  0.000  0.000
 2733.00  0.000  0.000
 2734.00  0.000  0.000
 2735.00  0.000  0.000
 2736.00  0.000  0.000
 2737.00  0.000  0.000
 2738.00  0.000  0.000
 2739.00  0.000  0.000
 2740.00  0.000  0.000
 2741.00  0.000  0.000
 2742.00  0.000  0.000
 2743.00  0.000  0.001
 2744.00  0.000  0.001
 2745.00  0.000  0.001
 2746.00  0.000  0.001
 2747.00  0.000  0.001
 2748.00  0.000  0.001
 2749.00  0.000  0.001
 2750.00  0.000  0.001
 2751.00  0.000  0.001
 2752.00  0.000  0.001
 2753.00  0.000  0.001
 2754.00  0.000  0.001
 2755.00  0.000  0.001
 2756.00  0.000  0.001
 2757.00  0.000  0.001
 2758.00  0.000  0.001
 2759.00  0.000  0.001
 2760.00  0.000  0.001
 2761.00  0.000  0.001
 2762.00  0.000  0.001
 2763.00  0.000  0.001
 2764.00  0.000  0.001
 2765.00  0.000  0.001
 2766.00  0.000  0.001
 2767.00  0.000  0.001
 2768.00  0.000  0.001
 2769.00  0.000  0.001
 2770.00  0.000  0.001
 2771.00  0.000  0.001
 2772.00  0.000  0.001
 2773.00  0.000  0.001
 2774.00  0.000  0.001
 2775.00  0.000  0.001
 2776.00  0.000  0.001
 2777.00  0.000  0.001
 2778.00  0.000  0.001
 2779.00  0.000  0.001
 2780.00  0.000  0.001
 2781.00  0.000  0.001
 2782.00  0.000  0.001
 2783.00  0.000  0.001
 2784.00  0.000  0.001
 2785.00  0.000  0.001
 2786.00  0.000  0.001
 2787.00  0.000  0.001
 2788.00  0.000  0.001
 2789.00  0.000  0.001
 2790.00  0.000  0.001
 2791.00  0.000  0.001
 2792.00  0.000  0.001
 2793.00  0.000  0.001
 2794.00  0.000  0.001
 2795.00  0.000  0.001
 2796.00  0.000  0.001
 2797.00  0.000  0.001
 2798.00  0.000  0.001
 2799.00  0.000  0.001
 2800.00  0.000  0.001
 2801.00  0.000  0.001
 2802.00  0.000  0.001
 2803.00  0.000  0.001
 2804.00  0.000  0.001
 2805.00  0.000  0.001
 2806.00  0.000  0.001
 2807.00  0.000  0.001
 2808.00  0.000  0.001
 2809.00  0.000  0.001
 2810.00  0.000  0.001
 2811.00  0.000  0.001
 2812.00  0.000  0.001
 2813.00  0.000  0.001
 2814.00  0.000  0.001
 2815.00  0.000  0.001
 2816.00  0.000  0.001
 2817.00  0.000  0.001
 2818.00  0.000  0.001
 2819.00  0.000  0.001
 2820.00  0.000  0.001
 2821.00  0.000  0.001
 2822.00  0.000  0.001
 2823.00  0.000  0.001
 2824.00  0.000  0.001
 2825.00  0.000  0.001
 2826.00  0.000  0.001
 2827.00  0.000  0.001
 2828.00  0.000  0.001
 2829.00  0.000  0.001
 2830.00  0.000  0.001
 2831.00  0.000  0.001
 2832.00  0.000  0.001
 2833.00  0.000  0.001
 2834.00  0.000  0.001
 2835.00  0.000  0.001
 2836.00  0.000  0.001
 2837.00  0.000  0.001
 2838.00  0.000  0.001
 2839.00  0.000  0.001
 2840.00  0.000  0.001
 2841.00  0.000  0.001
 2842.00  0.000  0.001
 2843.00  0.000  0.001
 2844.00  0.000  0.001
 2845.00  0.000  0.001
 2846.00  0.000  0.001
 2847.00  0.000  0.001
 2848.00  0.000  0.001
 2849.00  0.000  0.001
 2850.00  0.000  0.001
 2851.00  0.000  0.001
 2852.00  0.000  0.001
 2853.00  0.000  0.002
 2854.00  0.000  0.002
 2855.00  0.000  0.002
 2856.00  0.000  0.002
 2857.00  0.000  0.002
 2858.00  0.000  0.002
 2859.00  0.000  0.002
 2860.00  0.000  0.002
 2861.00  0.000  0.002
 2862.00  0.000  0.002
 2863.00  0.000  0.002
 2864.00  0.000  0.002
 2865.00  0.000  0.002
 2866.00  0.000  0.002
 2867.00  0.000  0.002
 2868.00  0.000  0.002
 2869.00  0.000  0.002
 2870.00  0.000  0.002
 2871.00  0.000  0.002
 2872.00  0.000  0.002
 2873.00  0.000  0.002
 2874.00  0.000  0.002
 2875.00  0.000  0.002
 2876.00  0.000  0.002
 2877.00  0.000  0.002
 2878.00  0.000  0.002
 2879.00  0.000  0.002
 2880.00  0.000  0.002
 2881.00  0.000  0.002
 2882.00  0.000  0.002
 2883.00  0.000  0.002
 2884.00  0.000  0.002
 2885.00  0.000  0.002
 2886.00  0.000  0.002
 2887.00  0.000  0.003
 2888.00  0.000  0.003
 2889.00  0.000  0.003
 2890.00  0.000  0.003
 2891.00  0.000  0.003
 2892.00  0.000  0.003
 2893.00  0.000  0.003
 2894.00  0.000  0.003
 2895.00  0.000  0.003
 2896.00  0.000  0.003
 2897.00  0.000  0.003
 2898.00  0.000  0.003
 2899.00  0.000  0.003
 2900.00  0.000  0.003
 2901.00  0.000  0.003
 2902.00  0.000  0.003
 2903.00  0.000  0.003
 2904.00  0.000  0.003
 2905.00  0.000  0.004
 2906.00  0.000  0.004
 2907.00  0.000  0.004
 2908.00  0.000  0.004
 2909.00  0.000  0.004
 2910.00  0.000  0.004
 2911.00  0.000  0.004
 2912.00  0.000  0.004
 2913.00  0.000  0.004
 2914.00  0.000  0.004
 2915.00  0.000  0.004
 2916.00  0.000  0.005
 2917.00  0.000  0.005
 2918.00  0.000  0.005
 2919.00  0.000  0.005
 2920.00  0.000  0.005
 2921.00  0.000  0.005
 2922.00  0.000  0.005
 2923.00  0.000  0.005
 2924.00  0.000  0.006
 2925.00  0.000  0.006
 2926.00  0.000  0.006
 2927.00  0.000  0.006
 2928.00  0.001  0.006
 2929.00  0.001  0.006
 2930.00  0.001  0.007
 2931.00  0.001  0.007
 2932.00  0.001  0.007
 2933.00  0.001  0.007
 2934.00  0.001  0.007
 2935.00  0.001  0.008
 2936.00  0.001  0.008
 2937.00  0.001  0.008
 2938.00  0.001  0.008
 2939.00  0.001  0.009
 2940.00  0.001  0.009
 2941.00  0.001  0.009
 2942.00  0.001  0.010
 2943.00  0.001  0.010
 2944.00  0.001  0.010
 2945.00  0.001  0.011
 2946.00  0.001  0.011
 2947.00  0.001  0.011
 2948.00  0.001  0.012
 2949.00  0.001  0.012
 2950.00  0.001  0.013
 2951.00  0.001  0.013
 2952.00  0.001  0.014
 2953.00  0.001  0.015
 2954.00  0.001  0.015
 2955.00  0.001  0.016
 2956.00  0.001  0.017
 2957.00  0.001  0.017
 2958.00  0.001  0.018
 2959.00  0.001  0.019
 2960.00  0.002  0.020
 2961.00  0.002  0.021
 2962.00  0.002  0.022
 2963.00  0.002  0.024
 2964.00  0.002  0.025
 2965.00  0.002  0.027
 2966.00  0.002  0.028
 2967.00  0.002  0.030
 2968.00  0.002  0.032
 2969.00  0.003  0.034
 2970.00  0.003  0.037
 2971.00  0.003  0.040
 2972.00  0.003  0.043
 2973.00  0.003  0.046
 2974.00  0.004  0.050
 2975.00  0.004  0.055
 2976.00  0.004  0.060
 2977.00  0.005  0.066
 2978.00  0.005  0.073
 2979.00  0.006  0.082
 2980.00  0.007  0.091
 2981.00  0.008  0.103
 2982.00  0.009  0.118
 2983.00  0.010  0.136
 2984.00  0.012  0.158
 2985.00  0.014  0.185
 2986.00  0.017  0.219
 2987.00  0.020  0.260
 2988.00  0.023  0.310
 2989.00  0.028  0.364
 2990.00  0.032  0.416
 2991.00  0.034  0.455
 2992.00  0.035  0.470
 2993.00  0.034  0.460
 2994.00  0.032  0.436
 2995.00  0.030  0.412
 2996.00  0.029  0.396
 2997.00  0.028  0.393
 2998.00  0.029  0.406
 2999.00  0.031  0.437
 3000.00  0.034  0.487
 3001.00  0.039  0.558
 3002.00  0.045  0.651
 3003.00  0.052  0.762
 3004.00  0.058  0.876
 3005.00  0.064  0.967
 3006.00  0.065  1.000
 3007.00  0.063  0.961
 3008.00  0.058  0.863
 3009.00  0.052  0.740
 3010.00  0.045  0.617
 3011.00  0.038  0.508
 3012.00  0.032  0.419
 3013.00  0.027  0.347
 3014.00  0.022  0.290
 3015.00  0.019  0.245
 3016.00  0.016  0.209
 3017.00  0.014  0.180
 3018.00  0.012  0.156
 3019.00  0.010  0.137
 3020.00  0.009  0.121
 3021.00  0.008  0.107
 3022.00  0.007  0.096
 3023.00  0.006  0.086
 3024.00  0.006  0.078
 3025.00  0.005  0.071
 3026.00  0.005  0.064
 3027.00  0.004  0.059
 3028.00  0.004  0.054
 3029.00  0.004  0.050
 3030.00  0.003  0.046
 3031.00  0.003  0.043
 3032.00  0.003  0.040
 3033.00  0.003  0.037
 3034.00  0.003  0.035
 3035.00  0.002  0.033
 3036.00  0.002  0.031
 3037.00  0.002  0.029
 3038.00  0.002  0.027
 3039.00  0.002  0.026
 3040.00  0.002  0.024
 3041.00  0.002  0.023
 3042.00  0.002  0.022
 3043.00  0.002  0.021
 3044.00  0.001  0.020
 3045.00  0.001  0.019
 3046.00  0.001  0.018
 3047.00  0.001  0.017
 3048.00  0.001  0.016
 3049.00  0.001  0.016
 3050.00  0.001  0.015
 3051.00  0.001  0.014
 3052.00  0.001  0.014
 3053.00  0.001  0.013
 3054.00  0.001  0.013
 3055.00  0.001  0.012
 3056.00  0.001  0.012
 3057.00  0.001  0.011
 3058.00  0.001  0.011
 3059.00  0.001  0.011
 3060.00  0.001  0.010
 3061.00  0.001  0.010
 3062.00  0.001  0.009
 3063.00  0.001  0.009
 3064.00  0.001  0.009
 3065.00  0.001  0.009
 3066.00  0.001  0.008
 3067.00  0.001  0.008
 3068.00  0.001  0.008
 3069.00  0.001  0.008
 3070.00  0.001  0.007
 3071.00  0.001  0.007
 3072.00  0.001  0.007
 3073.00  0.001  0.007
 3074.00  0.001  0.007
 3075.00  0.001  0.006
 3076.00  0.000  0.006
 3077.00  0.000  0.006
 3078.00  0.000  0.006
 3079.00  0.000  0.006
 3080.00  0.000  0.006
 3081.00  0.000  0.005
 3082.00  0.000  0.005
 3083.00  0.000  0.005
 3084.00  0.000  0.005
 3085.00  0.000  0.005
 3086.00  0.000  0.005
 3087.00  0.000  0.005
 3088.00  0.000  0.005
 3089.00  0.000  0.004
 3090.00  0.000  0.004
 3091.00  0.000  0.004
 3092.00  0.000  0.004
 3093.00  0.000  0.004
 3094.00  0.000  0.004
 3095.00  0.000  0.004
 3096.00  0.000  0.004
 3097.00  0.000  0.004
 3098.00  0.000  0.004
 3099.00  0.000  0.004
 3100.00  0.000  0.003
 3101.00  0.000  0.003
 3102.00  0.000  0.003
 3103.00  0.000  0.003
 3104.00  0.000  0.003
 3105.00  0.000  0.003
 3106.00  0.000  0.003
 3107.00  0.000  0.003
 3108.00  0.000  0.003
 3109.00  0.000  0.003
 3110.00  0.000  0.003
 3111.00  0.000  0.003
 3112.00  0.000  0.003
 3113.00  0.000  0.003
 3114.00  0.000  0.003
 3115.00  0.000  0.003
 3116.00  0.000  0.003
 3117.00  0.000  0.003
 3118.00  0.000  0.002
 3119.00  0.000  0.002
 3120.00  0.000  0.002
 3121.00  0.000  0.002
 3122.00  0.000  0.002
 3123.00  0.000  0.002
 3124.00  0.000  0.002
 3125.00  0.000  0.002
 3126.00  0.000  0.002
 3127.00  0.000  0.002
 3128.00  0.000  0.002
 3129.00  0.000  0.002
 3130.00  0.000  0.002
 3131.00  0.000  0.002
 3132.00  0.000  0.002
 3133.00  0.000  0.002
 3134.00  0.000  0.002
 3135.00  0.000  0.002
 3136.00  0.000  0.002
 3137.00  0.000  0.002
 3138.00  0.000  0.002
 3139.00  0.000  0.002
 3140.00  0.000  0.002
 3141.00  0.000  0.002
 3142.00  0.000  0.002
 3143.00  0.000  0.002
 3144.00  0.000  0.002
 3145.00  0.000  0.002
 3146.00  0.000  0.002
 3147.00  0.000  0.002
 3148.00  0.000  0.002
 3149.00  0.000  0.002
 3150.00  0.000  0.002
 3151.00  0.000  0.002
 3152.00  0.000  0.001
 3153.00  0.000  0.001
 3154.00  0.000  0.001
 3155.00  0.000  0.001
 3156.00  0.000  0.001
 3157.00  0.000  0.001
 3158.00  0.000  0.001
 3159.00  0.000  0.001
 3160.00  0.000  0.001
 3161.00  0.000  0.001
 3162.00  0.000  0.001
 3163.00  0.000  0.001
 3164.00  0.000  0.001
 3165.00  0.000  0.001
 3166.00  0.000  0.001
 3167.00  0.000  0.001
 3168.00  0.000  0.001
 3169.00  0.000  0.001
 3170.00  0.000  0.001
 3171.00  0.000  0.001
 3172.00  0.000  0.001
 3173.00  0.000  0.001
 3174.00  0.000  0.001
 3175.00  0.000  0.001
 3176.00  0.000  0.001
 3177.00  0.000  0.001
 3178.00  0.000  0.001
 3179.00  0.000  0.001
 3180.00  0.000  0.001
 3181.00  0.000  0.001
 3182.00  0.000  0.001
 3183.00  0.000  0.001
 3184.00  0.000  0.001
 3185.00  0.000  0.001
 3186.00  0.000  0.001
 3187.00  0.000  0.001
 3188.00  0.000  0.001
 3189.00  0.000  0.001
 3190.00  0.000  0.001
 3191.00  0.000  0.001
 3192.00  0.000  0.001
 3193.00  0.000  0.001
 3194.00  0.000  0.001
 3195.00  0.000  0.001
 3196.00  0.000  0.001
 3197.00  0.000  0.001
 3198.00  0.000  0.001
 3199.00  0.000  0.001
 3200.00  0.000  0.001
