v / cm^-1	Intensity / AU
3861	0.000283067
3860	0.000293248
3859	0.000304035
3858	0.000315477
3857	0.000327628
3856	0.000340547
3855	0.000354301
3854	0.000368963
3853	0.000384615
3852	0.000401346
3851	0.000419258
3850	0.000438466
3849	0.000459096
3848	0.000481291
3847	0.000505213
3846	0.000531046
3845	0.000558996
3844	0.000589301
3843	0.000622231
3842	0.000658094
3841	0.000697249
3840	0.000740106
3839	0.000787144
3838	0.000838917
3837	0.000896079
3836	0.000959393
3835	0.001029764
3834	0.001108266
3833	0.001196182
3832	0.001295055
3831	0.001406748
3830	0.001533534
3829	0.001678193
3828	0.001844166
3827	0.002035733
3826	0.002258265
3825	0.002518565
3824	0.002825321
3823	0.003189728
3822	0.003626346
3821	0.004154257
3820	0.004798653
3819	0.005592937
3818	0.006581372
3817	0.007822054
3816	0.009389188
3815	0.011371652
3814	0.013860289
3813	0.016907995
3812	0.020438046
3811	0.024092375
3810	0.027113296
3809	0.028525525
3808	0.027754813
3807	0.025124204
3806	0.021564659
3805	0.017941464
3804	0.014729206
3803	0.012072385
3802	0.009944837
3801	0.008261183
3800	0.006929756
3799	0.005871417
3798	0.005023321
3797	0.004337306
3796	0.003776967
3795	0.00331486
3794	0.002930231
3793	0.002607284
3792	0.002333903
3791	0.00210071
3790	0.001900385
3789	0.00172716
3788	0.001576452
3787	0.001444589
3786	0.001328605
3785	0.001226086
3784	0.001135054
3783	0.001053875
3782	0.000981194
3781	0.000915877
3780	0.000856973
3779	0.000803676
3778	0.000755303
3777	0.00071127
3776	0.000671078
3775	0.000634296
3774	0.000600551
3773	0.000569521
3772	0.000540923
3771	0.000514513
3770	0.000490073
3769	0.000467413
3768	0.000446366
3767	0.000426783
3766	0.000408532
3765	0.000391496
3764	0.00037557
3763	0.000360659
3762	0.000346681
3761	0.000333558
3760	0.000321223
3759	0.000309615
3758	0.000298678
3757	0.000288361
3756	0.000278618
3755	0.000269408
3754	0.000260694
3753	0.000252439
3752	0.000244613
3751	0.000237187
3750	0.000230134
3749	0.000223429
3748	0.00021705
3747	0.000210977
3746	0.00020519
3745	0.000199672
3744	0.000194406
3743	0.000189378
3742	0.000184573
3741	0.000179978
3740	0.000175582
3739	0.000171373
3738	0.000167341
3737	0.000163476
3736	0.00015977
3735	0.000156213
3734	0.000152798
3733	0.000149517
3732	0.000146364
3731	0.000143331
3730	0.000140414
3729	0.000137606
3728	0.000134902
3727	0.000132297
3726	0.000129787
3725	0.000127366
3724	0.000125031
3723	0.000122777
3722	0.000120601
3721	0.0001185
3720	0.00011647
3719	0.000114508
3718	0.000112611
3717	0.000110777
3716	0.000109002
3715	0.000107284
3714	0.00010562
3713	0.00010401
3712	0.000102449
3711	0.000100937
3710	9.95E-05
3709	9.80E-05
3708	9.67E-05
3707	9.53E-05
3706	9.40E-05
3705	9.28E-05
3704	9.16E-05
3703	9.04E-05
3702	8.92E-05
3701	8.81E-05
3700	8.70E-05
3699	8.59E-05
3698	8.49E-05
3697	8.39E-05
3696	8.29E-05
3695	8.20E-05
3694	8.11E-05
3693	8.02E-05
3692	7.93E-05
3691	7.84E-05
3690	7.76E-05
3689	7.68E-05
3688	7.60E-05
3687	7.52E-05
3686	7.45E-05
3685	7.38E-05
3684	7.30E-05
3683	7.23E-05
3682	7.17E-05
3681	7.10E-05
3680	7.04E-05
3679	6.97E-05
3678	6.91E-05
3677	6.85E-05
3676	6.79E-05
3675	6.74E-05
3674	6.68E-05
3673	6.63E-05
3672	6.57E-05
3671	6.52E-05
3670	6.47E-05
3669	6.42E-05
3668	6.37E-05
3667	6.32E-05
3666	6.28E-05
3665	6.23E-05
3664	6.19E-05
3663	6.14E-05
3662	6.10E-05
3661	6.06E-05
3660	6.02E-05
3659	5.98E-05
3658	5.94E-05
3657	5.90E-05
3656	5.86E-05
3655	5.83E-05
3654	5.79E-05
3653	5.76E-05
3652	5.72E-05
3651	5.69E-05
3650	5.66E-05
3649	5.62E-05
3648	5.59E-05
3647	5.56E-05
3646	5.53E-05
3645	5.50E-05
3644	5.47E-05
3643	5.44E-05
3642	5.42E-05
3641	5.39E-05
3640	5.36E-05
3639	5.34E-05
3638	5.31E-05
3637	5.28E-05
3636	5.26E-05
3635	5.24E-05
3634	5.21E-05
3633	5.19E-05
3632	5.17E-05
3631	5.14E-05
3630	5.12E-05
3629	5.10E-05
3628	5.08E-05
3627	5.06E-05
3626	5.04E-05
3625	5.02E-05
3624	5.00E-05
3623	4.98E-05
3622	4.96E-05
3621	4.94E-05
3620	4.92E-05
3619	4.90E-05
3618	4.89E-05
3617	4.87E-05
3616	4.85E-05
3615	4.84E-05
3614	4.82E-05
3613	4.80E-05
3612	4.79E-05
3611	4.77E-05
3610	4.76E-05
3609	4.74E-05
3608	4.73E-05
3607	4.72E-05
3606	4.70E-05
3605	4.69E-05
3604	4.67E-05
3603	4.66E-05
3602	4.65E-05
3601	4.64E-05
3600	4.62E-05
3599	4.61E-05
3598	4.60E-05
3597	4.59E-05
3596	4.58E-05
3595	4.56E-05
3594	4.55E-05
3593	4.54E-05
3592	4.53E-05
3591	4.52E-05
3590	4.51E-05
3589	4.50E-05
3588	4.49E-05
3587	4.48E-05
3586	4.47E-05
3585	4.46E-05
3584	4.45E-05
3583	4.44E-05
3582	4.44E-05
3581	4.43E-05
3580	4.42E-05
3579	4.41E-05
3578	4.40E-05
3577	4.39E-05
3576	4.39E-05
3575	4.38E-05
3574	4.37E-05
3573	4.36E-05
3572	4.36E-05
3571	4.35E-05
3570	4.34E-05
3569	4.34E-05
3568	4.33E-05
3567	4.32E-05
3566	4.32E-05
3565	4.31E-05
3564	4.30E-05
3563	4.30E-05
3562	4.29E-05
3561	4.29E-05
3560	4.28E-05
3559	4.28E-05
3558	4.27E-05
3557	4.27E-05
3556	4.26E-05
3555	4.26E-05
3554	4.25E-05
3553	4.25E-05
3552	4.24E-05
3551	4.24E-05
3550	4.23E-05
3549	4.23E-05
3548	4.22E-05
3547	4.22E-05
3546	4.22E-05
3545	4.21E-05
3544	4.21E-05
3543	4.20E-05
3542	4.20E-05
3541	4.20E-05
3540	4.19E-05
3539	4.19E-05
3538	4.19E-05
3537	4.18E-05
3536	4.18E-05
3535	4.18E-05
3534	4.18E-05
3533	4.17E-05
3532	4.17E-05
3531	4.17E-05
3530	4.17E-05
3529	4.16E-05
3528	4.16E-05
3527	4.16E-05
3526	4.16E-05
3525	4.15E-05
3524	4.15E-05
3523	4.15E-05
3522	4.15E-05
3521	4.15E-05
3520	4.14E-05
3519	4.14E-05
3518	4.14E-05
3517	4.14E-05
3516	4.14E-05
3515	4.14E-05
3514	4.14E-05
3513	4.14E-05
3512	4.13E-05
3511	4.13E-05
3510	4.13E-05
3509	4.13E-05
3508	4.13E-05
3507	4.13E-05
3506	4.13E-05
3505	4.13E-05
3504	4.13E-05
3503	4.13E-05
3502	4.13E-05
3501	4.13E-05
3500	4.13E-05
3499	4.13E-05
3498	4.13E-05
3497	4.13E-05
3496	4.13E-05
3495	4.13E-05
3494	4.13E-05
3493	4.13E-05
3492	4.13E-05
3491	4.13E-05
3490	4.13E-05
3489	4.13E-05
3488	4.13E-05
3487	4.13E-05
3486	4.13E-05
3485	4.13E-05
3484	4.13E-05
3483	4.13E-05
3482	4.13E-05
3481	4.13E-05
3480	4.13E-05
3479	4.14E-05
3478	4.14E-05
3477	4.14E-05
3476	4.14E-05
3475	4.14E-05
3474	4.14E-05
3473	4.14E-05
3472	4.14E-05
3471	4.15E-05
3470	4.15E-05
3469	4.15E-05
3468	4.15E-05
3467	4.15E-05
3466	4.15E-05
3465	4.16E-05
3464	4.16E-05
3463	4.16E-05
3462	4.16E-05
3461	4.16E-05
3460	4.17E-05
3459	4.17E-05
3458	4.17E-05
3457	4.17E-05
3456	4.18E-05
3455	4.18E-05
3454	4.18E-05
3453	4.18E-05
3452	4.19E-05
3451	4.19E-05
3450	4.19E-05
3449	4.19E-05
3448	4.20E-05
3447	4.20E-05
3446	4.20E-05
3445	4.20E-05
3444	4.21E-05
3443	4.21E-05
3442	4.21E-05
3441	4.22E-05
3440	4.22E-05
3439	4.22E-05
3438	4.23E-05
3437	4.23E-05
3436	4.23E-05
3435	4.24E-05
3434	4.24E-05
3433	4.24E-05
3432	4.25E-05
3431	4.25E-05
3430	4.26E-05
3429	4.26E-05
3428	4.26E-05
3427	4.27E-05
3426	4.27E-05
3425	4.28E-05
3424	4.28E-05
3423	4.28E-05
3422	4.29E-05
3421	4.29E-05
3420	4.30E-05
3419	4.30E-05
3418	4.31E-05
3417	4.31E-05
3416	4.32E-05
3415	4.32E-05
3414	4.33E-05
3413	4.33E-05
3412	4.34E-05
3411	4.34E-05
3410	4.35E-05
3409	4.35E-05
3408	4.36E-05
3407	4.36E-05
3406	4.37E-05
3405	4.37E-05
3404	4.38E-05
3403	4.38E-05
3402	4.39E-05
3401	4.39E-05
3400	4.40E-05
3399	4.40E-05
3398	4.41E-05
3397	4.42E-05
3396	4.42E-05
3395	4.43E-05
3394	4.43E-05
3393	4.44E-05
3392	4.45E-05
3391	4.45E-05
3390	4.46E-05
3389	4.47E-05
3388	4.47E-05
3387	4.48E-05
3386	4.49E-05
3385	4.49E-05
3384	4.50E-05
3383	4.51E-05
3382	4.51E-05
3381	4.52E-05
3380	4.53E-05
3379	4.54E-05
3378	4.54E-05
3377	4.55E-05
3376	4.56E-05
3375	4.57E-05
3374	4.57E-05
3373	4.58E-05
3372	4.59E-05
3371	4.60E-05
3370	4.61E-05
3369	4.61E-05
3368	4.62E-05
3367	4.63E-05
3366	4.64E-05
3365	4.65E-05
3364	4.66E-05
3363	4.67E-05
3362	4.68E-05
3361	4.68E-05
3360	4.69E-05
3359	4.70E-05
3358	4.71E-05
3357	4.72E-05
3356	4.73E-05
3355	4.74E-05
3354	4.75E-05
3353	4.76E-05
3352	4.77E-05
3351	4.78E-05
3350	4.79E-05
3349	4.80E-05
3348	4.81E-05
3347	4.82E-05
3346	4.83E-05
3345	4.85E-05
3344	4.86E-05
3343	4.87E-05
3342	4.88E-05
3341	4.89E-05
3340	4.90E-05
3339	4.92E-05
3338	4.93E-05
3337	4.94E-05
3336	4.95E-05
3335	4.96E-05
3334	4.98E-05
3333	4.99E-05
3332	5.00E-05
3331	5.02E-05
3330	5.03E-05
3329	5.04E-05
3328	5.06E-05
3327	5.07E-05
3326	5.08E-05
3325	5.10E-05
3324	5.11E-05
3323	5.13E-05
3322	5.14E-05
3321	5.16E-05
3320	5.17E-05
3319	5.19E-05
3318	5.20E-05
3317	5.22E-05
3316	5.24E-05
3315	5.25E-05
3314	5.27E-05
3313	5.29E-05
3312	5.30E-05
3311	5.32E-05
3310	5.34E-05
3309	5.36E-05
3308	5.38E-05
3307	5.39E-05
3306	5.41E-05
3305	5.43E-05
3304	5.45E-05
3303	5.47E-05
3302	5.49E-05
3301	5.51E-05
3300	5.53E-05
3299	5.55E-05
3298	5.57E-05
3297	5.59E-05
3296	5.62E-05
3295	5.64E-05
3294	5.66E-05
3293	5.68E-05
3292	5.71E-05
3291	5.73E-05
3290	5.76E-05
3289	5.78E-05
3288	5.81E-05
3287	5.83E-05
3286	5.86E-05
3285	5.88E-05
3284	5.91E-05
3283	5.94E-05
3282	5.96E-05
3281	5.99E-05
3280	6.02E-05
3279	6.05E-05
3278	6.08E-05
3277	6.11E-05
3276	6.14E-05
3275	6.17E-05
3274	6.21E-05
3273	6.24E-05
3272	6.27E-05
3271	6.31E-05
3270	6.34E-05
3269	6.38E-05
3268	6.41E-05
3267	6.45E-05
3266	6.49E-05
3265	6.53E-05
3264	6.56E-05
3263	6.60E-05
3262	6.65E-05
3261	6.69E-05
3260	6.73E-05
3259	6.77E-05
3258	6.82E-05
3257	6.86E-05
3256	6.91E-05
3255	6.96E-05
3254	7.01E-05
3253	7.06E-05
3252	7.11E-05
3251	7.16E-05
3250	7.21E-05
3249	7.27E-05
3248	7.32E-05
3247	7.38E-05
3246	7.44E-05
3245	7.50E-05
3244	7.56E-05
3243	7.62E-05
3242	7.69E-05
3241	7.75E-05
3240	7.82E-05
3239	7.89E-05
3238	7.96E-05
3237	8.04E-05
3236	8.11E-05
3235	8.19E-05
3234	8.27E-05
3233	8.35E-05
3232	8.44E-05
3231	8.52E-05
3230	8.61E-05
3229	8.70E-05
3228	8.80E-05
3227	8.90E-05
3226	9.00E-05
3225	9.10E-05
3224	9.21E-05
3223	9.32E-05
3222	9.43E-05
3221	9.55E-05
3220	9.67E-05
3219	9.79E-05
3218	9.92E-05
3217	0.000100576
3216	0.000101959
3215	0.000103391
3214	0.000104873
3213	0.000106409
3212	0.000108
3211	0.00010965
3210	0.000111361
3209	0.000113138
3208	0.000114982
3207	0.000116898
3206	0.00011889
3205	0.000120963
3204	0.000123119
3203	0.000125365
3202	0.000127706
3201	0.000130146
3200	0.000132693
3199	0.000135352
3198	0.00013813
3197	0.000141035
3196	0.000144076
3195	0.00014726
3194	0.000150597
3193	0.000154097
3192	0.000157773
3191	0.000161635
3190	0.000165698
3189	0.000169976
3188	0.000174484
3187	0.00017924
3186	0.000184263
3185	0.000189574
3184	0.000195197
3183	0.000201156
3182	0.00020748
3181	0.0002142
3180	0.000221352
3179	0.000228973
3178	0.000237107
3177	0.000245803
3176	0.000255114
3175	0.000265102
3174	0.000275837
3173	0.000287395
3172	0.000299867
3171	0.000313353
3170	0.000327969
3169	0.000343849
3168	0.000361146
3167	0.000380037
3166	0.00040073
3165	0.000423465
3164	0.000448527
3163	0.00047625
3162	0.000507031
3161	0.000541345
3160	0.000579761
3159	0.000622969
3158	0.000671805
3157	0.0007273
3156	0.000790722
3155	0.000863656
3154	0.00094809
3153	0.001046546
3152	0.001162249
3151	0.00129936
3150	0.0014633
3149	0.001661184
3148	0.001902413
3147	0.002199446
3146	0.002568749
3145	0.003031785
3144	0.003615521
3143	0.004351072
3142	0.005267106
3141	0.006371485
3140	0.00761297
3139	0.008827372
3138	0.009719678
3137	0.009978864
3136	0.009505721
3135	0.008502262
3134	0.007298378
3133	0.00614623
3132	0.005163549
3131	0.00437504
3130	0.00376319
3129	0.003298594
3128	0.002953103
3127	0.00270404
3126	0.002534768
3125	0.002434113
3124	0.002395635
3123	0.002417107
3122	0.002500279
3121	0.002650886
3120	0.002878727
3119	0.00319734
3118	0.003622228
3117	0.004165566
3116	0.004824959
3115	0.005567971
3114	0.006327769
3113	0.007033359
3112	0.007654373
3111	0.008182175
3110	0.008543264
3109	0.00857548
3108	0.008153035
3107	0.007330507
3106	0.006311255
3105	0.00529715
3104	0.004402181
3103	0.003660418
3102	0.003063351
3101	0.002587595
3100	0.002208356
3099	0.001904262
3098	0.001658317
3097	0.001457459
3096	0.001291782
3095	0.001153785
3094	0.001037771
3093	0.000939383
3092	0.000855261
3091	0.000782792
3090	0.000719924
3089	0.000665031
3088	0.000616815
3087	0.000574229
3086	0.000536422
3085	0.000502698
3084	0.000472484
3083	0.000445302
3082	0.000420754
3081	0.000398507
3080	0.000378276
3079	0.000359823
3078	0.00034294
3077	0.000327453
3076	0.000313208
3075	0.000300074
3074	0.000287937
3073	0.000276696
3072	0.000266264
3071	0.000256565
3070	0.000247529
3069	0.000239096
3068	0.000231214
3067	0.000223835
3066	0.000216916
3065	0.000210419
3064	0.00020431
3063	0.000198559
3062	0.000193137
3061	0.00018802
3060	0.000183185
3059	0.000178612
3058	0.000174281
3057	0.000170177
3056	0.000166282
3055	0.000162584
3054	0.000159068
3053	0.000155724
3052	0.00015254
3051	0.000149506
3050	0.000146613
3049	0.000143852
3048	0.000141215
3047	0.000138695
3046	0.000136285
3045	0.00013398
3044	0.000131772
3043	0.000129657
3042	0.000127629
3041	0.000125685
3040	0.000123819
3039	0.000122027
3038	0.000120305
3037	0.000118651
3036	0.00011706
3035	0.00011553
3034	0.000114057
3033	0.000112638
3032	0.000111272
3031	0.000109956
3030	0.000108686
3029	0.000107462
3028	0.000106281
3027	0.000105142
3026	0.000104041
3025	0.000102979
3024	0.000101952
3023	0.00010096
3022	0.000100001
3021	9.91E-05
3020	9.82E-05
3019	9.73E-05
3018	9.65E-05
3017	9.57E-05
3016	9.49E-05
3015	9.41E-05
3014	9.34E-05
3013	9.26E-05
3012	9.20E-05
3011	9.13E-05
3010	9.06E-05
3009	9.00E-05
3008	8.94E-05
3007	8.88E-05
3006	8.82E-05
3005	8.77E-05
3004	8.71E-05
3003	8.66E-05
3002	8.61E-05
3001	8.56E-05
3000	8.51E-05
2999	8.46E-05
2998	8.42E-05
2997	8.37E-05
2996	8.33E-05
2995	8.29E-05
2994	8.24E-05
2993	8.21E-05
2992	8.17E-05
2991	8.13E-05
2990	8.09E-05
2989	8.06E-05
2988	8.02E-05
2987	7.99E-05
2986	7.96E-05
2985	7.92E-05
2984	7.89E-05
2983	7.86E-05
2982	7.83E-05
2981	7.81E-05
2980	7.78E-05
2979	7.75E-05
2978	7.72E-05
2977	7.70E-05
2976	7.67E-05
2975	7.65E-05
2974	7.63E-05
2973	7.60E-05
2972	7.58E-05
2971	7.56E-05
2970	7.54E-05
2969	7.52E-05
2968	7.50E-05
2967	7.48E-05
2966	7.46E-05
2965	7.44E-05
2964	7.42E-05
2963	7.41E-05
2962	7.39E-05
2961	7.37E-05
2960	7.36E-05
2959	7.34E-05
2958	7.32E-05
2957	7.31E-05
2956	7.30E-05
2955	7.28E-05
2954	7.27E-05
2953	7.25E-05
2952	7.24E-05
2951	7.23E-05
2950	7.22E-05
2949	7.21E-05
2948	7.19E-05
2947	7.18E-05
2946	7.17E-05
2945	7.16E-05
2944	7.15E-05
2943	7.14E-05
2942	7.13E-05
2941	7.12E-05
2940	7.11E-05
2939	7.10E-05
2938	7.10E-05
2937	7.09E-05
2936	7.08E-05
2935	7.07E-05
2934	7.07E-05
2933	7.06E-05
2932	7.05E-05
2931	7.04E-05
2930	7.04E-05
2929	7.03E-05
2928	7.03E-05
2927	7.02E-05
2926	7.01E-05
2925	7.01E-05
2924	7.00E-05
2923	7.00E-05
2922	6.99E-05
2921	6.99E-05
2920	6.99E-05
2919	6.98E-05
2918	6.98E-05
2917	6.97E-05
2916	6.97E-05
2915	6.97E-05
2914	6.96E-05
2913	6.96E-05
2912	6.96E-05
2911	6.95E-05
2910	6.95E-05
2909	6.95E-05
2908	6.95E-05
2907	6.94E-05
2906	6.94E-05
2905	6.94E-05
2904	6.94E-05
2903	6.94E-05
2902	6.94E-05
2901	6.93E-05
2900	6.93E-05
2899	6.93E-05
2898	6.93E-05
2897	6.93E-05
2896	6.93E-05
2895	6.93E-05
2894	6.93E-05
2893	6.93E-05
2892	6.93E-05
2891	6.93E-05
2890	6.93E-05
2889	6.93E-05
2888	6.93E-05
2887	6.93E-05
2886	6.93E-05
2885	6.93E-05
2884	6.93E-05
2883	6.93E-05
2882	6.93E-05
2881	6.94E-05
2880	6.94E-05
2879	6.94E-05
2878	6.94E-05
2877	6.94E-05
2876	6.94E-05
2875	6.94E-05
2874	6.95E-05
2873	6.95E-05
2872	6.95E-05
2871	6.95E-05
2870	6.95E-05
2869	6.96E-05
2868	6.96E-05
2867	6.96E-05
2866	6.96E-05
2865	6.97E-05
2864	6.97E-05
2863	6.97E-05
2862	6.97E-05
2861	6.98E-05
2860	6.98E-05
2859	6.98E-05
2858	6.99E-05
2857	6.99E-05
2856	6.99E-05
2855	7.00E-05
2854	7.00E-05
2853	7.00E-05
2852	7.01E-05
2851	7.01E-05
2850	7.01E-05
2849	7.02E-05
2848	7.02E-05
2847	7.03E-05
2846	7.03E-05
2845	7.03E-05
2844	7.04E-05
2843	7.04E-05
2842	7.05E-05
2841	7.05E-05
2840	7.06E-05
2839	7.06E-05
2838	7.06E-05
2837	7.07E-05
2836	7.07E-05
2835	7.08E-05
2834	7.08E-05
2833	7.09E-05
2832	7.09E-05
2831	7.10E-05
2830	7.10E-05
2829	7.11E-05
2828	7.11E-05
2827	7.12E-05
2826	7.12E-05
2825	7.13E-05
2824	7.13E-05
2823	7.14E-05
2822	7.15E-05
2821	7.15E-05
2820	7.16E-05
2819	7.16E-05
2818	7.17E-05
2817	7.17E-05
2816	7.18E-05
2815	7.19E-05
2814	7.19E-05
2813	7.20E-05
2812	7.20E-05
2811	7.21E-05
2810	7.22E-05
2809	7.22E-05
2808	7.23E-05
2807	7.24E-05
2806	7.24E-05
2805	7.25E-05
2804	7.25E-05
2803	7.26E-05
2802	7.27E-05
2801	7.27E-05
2800	7.28E-05
2799	7.29E-05
2798	7.29E-05
2797	7.30E-05
2796	7.31E-05
2795	7.31E-05
2794	7.32E-05
2793	7.33E-05
2792	7.34E-05
2791	7.34E-05
2790	7.35E-05
2789	7.36E-05
2788	7.36E-05
2787	7.37E-05
2786	7.38E-05
2785	7.39E-05
2784	7.39E-05
2783	7.40E-05
2782	7.41E-05
2781	7.42E-05
2780	7.42E-05
2779	7.43E-05
2778	7.44E-05
2777	7.45E-05
2776	7.45E-05
2775	7.46E-05
2774	7.47E-05
2773	7.48E-05
2772	7.49E-05
2771	7.49E-05
2770	7.50E-05
2769	7.51E-05
2768	7.52E-05
2767	7.53E-05
2766	7.53E-05
2765	7.54E-05
2764	7.55E-05
2763	7.56E-05
2762	7.57E-05
2761	7.58E-05
2760	7.58E-05
2759	7.59E-05
2758	7.60E-05
2757	7.61E-05
2756	7.62E-05
2755	7.63E-05
2754	7.64E-05
2753	7.64E-05
2752	7.65E-05
2751	7.66E-05
2750	7.67E-05
2749	7.68E-05
2748	7.69E-05
2747	7.70E-05
2746	7.71E-05
2745	7.72E-05
2744	7.72E-05
2743	7.73E-05
2742	7.74E-05
2741	7.75E-05
2740	7.76E-05
2739	7.77E-05
2738	7.78E-05
2737	7.79E-05
2736	7.80E-05
2735	7.81E-05
2734	7.82E-05
2733	7.83E-05
2732	7.84E-05
2731	7.85E-05
2730	7.86E-05
2729	7.87E-05
2728	7.88E-05
2727	7.89E-05
2726	7.89E-05
2725	7.90E-05
2724	7.91E-05
2723	7.92E-05
2722	7.93E-05
2721	7.94E-05
2720	7.95E-05
2719	7.96E-05
2718	7.97E-05
2717	7.98E-05
2716	7.99E-05
2715	8.01E-05
2714	8.02E-05
2713	8.03E-05
2712	8.04E-05
2711	8.05E-05
2710	8.06E-05
2709	8.07E-05
2708	8.08E-05
2707	8.09E-05
2706	8.10E-05
2705	8.11E-05
2704	8.12E-05
2703	8.13E-05
2702	8.14E-05
2701	8.15E-05
2700	8.16E-05
2699	8.17E-05
2698	8.18E-05
2697	8.20E-05
2696	8.21E-05
2695	8.22E-05
2694	8.23E-05
2693	8.24E-05
2692	8.25E-05
2691	8.26E-05
2690	8.27E-05
2689	8.28E-05
2688	8.30E-05
2687	8.31E-05
2686	8.32E-05
2685	8.33E-05
2684	8.34E-05
2683	8.35E-05
2682	8.36E-05
2681	8.38E-05
2680	8.39E-05
2679	8.40E-05
2678	8.41E-05
2677	8.42E-05
2676	8.43E-05
2675	8.45E-05
2674	8.46E-05
2673	8.47E-05
2672	8.48E-05
2671	8.49E-05
2670	8.50E-05
2669	8.52E-05
2668	8.53E-05
2667	8.54E-05
2666	8.55E-05
2665	8.57E-05
2664	8.58E-05
2663	8.59E-05
2662	8.60E-05
2661	8.61E-05
2660	8.63E-05
2659	8.64E-05
2658	8.65E-05
2657	8.66E-05
2656	8.68E-05
2655	8.69E-05
2654	8.70E-05
2653	8.71E-05
2652	8.73E-05
2651	8.74E-05
2650	8.75E-05
2649	8.77E-05
2648	8.78E-05
2647	8.79E-05
2646	8.80E-05
2645	8.82E-05
2644	8.83E-05
2643	8.84E-05
2642	8.86E-05
2641	8.87E-05
2640	8.88E-05
2639	8.90E-05
2638	8.91E-05
2637	8.92E-05
2636	8.94E-05
2635	8.95E-05
2634	8.96E-05
2633	8.98E-05
2632	8.99E-05
2631	9.00E-05
2630	9.02E-05
2629	9.03E-05
2628	9.04E-05
2627	9.06E-05
2626	9.07E-05
2625	9.09E-05
2624	9.10E-05
2623	9.11E-05
2622	9.13E-05
2621	9.14E-05
2620	9.16E-05
2619	9.17E-05
2618	9.18E-05
2617	9.20E-05
2616	9.21E-05
2615	9.23E-05
2614	9.24E-05
2613	9.25E-05
2612	9.27E-05
2611	9.28E-05
2610	9.30E-05
2609	9.31E-05
2608	9.33E-05
2607	9.34E-05
2606	9.36E-05
2605	9.37E-05
2604	9.39E-05
2603	9.40E-05
2602	9.42E-05
2601	9.43E-05
2600	9.45E-05
2599	9.46E-05
2598	9.48E-05
2597	9.49E-05
2596	9.51E-05
2595	9.52E-05
2594	9.54E-05
2593	9.55E-05
2592	9.57E-05
2591	9.58E-05
2590	9.60E-05
2589	9.61E-05
2588	9.63E-05
2587	9.64E-05
2586	9.66E-05
2585	9.67E-05
2584	9.69E-05
2583	9.71E-05
2582	9.72E-05
2581	9.74E-05
2580	9.75E-05
2579	9.77E-05
2578	9.79E-05
2577	9.80E-05
2576	9.82E-05
2575	9.83E-05
2574	9.85E-05
2573	9.87E-05
2572	9.88E-05
2571	9.90E-05
2570	9.92E-05
2569	9.93E-05
2568	9.95E-05
2567	9.96E-05
2566	9.98E-05
2565	1.00E-04
2564	0.000100144
2563	0.000100311
2562	0.000100479
2561	0.000100647
2560	0.000100816
2559	0.000100985
2558	0.000101155
2557	0.000101325
2556	0.000101496
2555	0.000101667
2554	0.000101839
2553	0.000102011
2552	0.000102184
2551	0.000102357
2550	0.000102531
2549	0.000102706
2548	0.000102881
2547	0.000103056
2546	0.000103232
2545	0.000103409
2544	0.000103586
2543	0.000103764
2542	0.000103942
2541	0.000104121
2540	0.0001043
2539	0.00010448
2538	0.00010466
2537	0.000104841
2536	0.000105023
2535	0.000105205
2534	0.000105387
2533	0.000105571
2532	0.000105754
2531	0.000105939
2530	0.000106124
2529	0.000106309
2528	0.000106495
2527	0.000106682
2526	0.000106869
2525	0.000107057
2524	0.000107245
2523	0.000107434
2522	0.000107624
2521	0.000107814
2520	0.000108004
2519	0.000108196
2518	0.000108388
2517	0.00010858
