# v / cm^-1, IR Int./ AU, Raman Int. / AU
 -100.00  0.000  0.000
  -99.00  0.000  0.000
  -98.00  0.000  0.000
  -97.00  0.000  0.000
  -96.00  0.000  0.000
  -95.00  0.000  0.000
  -94.00  0.000  0.000
  -93.00  0.000  0.000
  -92.00  0.000  0.000
  -91.00  0.000  0.000
  -90.00  0.000  0.000
  -89.00  0.000  0.000
  -88.00  0.000  0.000
  -87.00  0.000  0.000
  -86.00  0.000  0.000
  -85.00  0.000  0.000
  -84.00  0.000  0.000
  -83.00  0.000  0.000
  -82.00  0.000  0.000
  -81.00  0.000  0.000
  -80.00  0.000  0.000
  -79.00  0.000  0.000
  -78.00  0.000  0.000
  -77.00  0.000  0.000
  -76.00  0.000  0.000
  -75.00  0.000  0.000
  -74.00  0.000  0.000
  -73.00  0.000  0.000
  -72.00  0.000  0.000
  -71.00  0.000  0.000
  -70.00  0.000  0.000
  -69.00  0.000  0.000
  -68.00  0.000  0.000
  -67.00  0.000  0.000
  -66.00  0.000  0.000
  -65.00  0.000  0.000
  -64.00  0.000  0.000
  -63.00  0.000  0.000
  -62.00  0.000  0.000
  -61.00  0.000  0.000
  -60.00  0.000  0.000
  -59.00  0.000  0.000
  -58.00  0.000  0.000
  -57.00  0.000  0.000
  -56.00  0.000  0.000
  -55.00  0.000  0.000
  -54.00  0.000  0.000
  -53.00  0.000  0.000
  -52.00  0.000  0.000
  -51.00  0.000  0.000
  -50.00  0.000  0.000
  -49.00  0.000  0.000
  -48.00  0.000  0.000
  -47.00  0.001  0.000
  -46.00  0.001  0.000
  -45.00  0.001  0.000
  -44.00  0.001  0.000
  -43.00  0.001  0.000
  -42.00  0.001  0.000
  -41.00  0.001  0.000
  -40.00  0.001  0.000
  -39.00  0.001  0.000
  -38.00  0.001  0.000
  -37.00  0.001  0.000
  -36.00  0.001  0.000
  -35.00  0.001  0.000
  -34.00  0.001  0.000
  -33.00  0.001  0.000
  -32.00  0.001  0.000
  -31.00  0.001  0.000
  -30.00  0.001  0.000
  -29.00  0.001  0.000
  -28.00  0.001  0.000
  -27.00  0.001  0.000
  -26.00  0.001  0.000
  -25.00  0.001  0.000
  -24.00  0.001  0.000
  -23.00  0.001  0.000
  -22.00  0.001  0.000
  -21.00  0.001  0.000
  -20.00  0.001  0.000
  -19.00  0.001  0.000
  -18.00  0.001  0.000
  -17.00  0.001  0.000
  -16.00  0.001  0.000
  -15.00  0.001  0.000
  -14.00  0.001  0.000
  -13.00  0.001  0.000
  -12.00  0.001  0.000
  -11.00  0.001  0.000
  -10.00  0.001  0.000
   -9.00  0.001  0.000
   -8.00  0.001  0.000
   -7.00  0.001  0.000
   -6.00  0.001  0.000
   -5.00  0.001  0.000
   -4.00  0.001  0.000
   -3.00  0.001  0.000
   -2.00  0.001  0.000
   -1.00  0.001  0.000
    0.00  0.001  0.000
    1.00  0.001  0.000
    2.00  0.001  0.000
    3.00  0.001  0.000
    4.00  0.001  0.000
    5.00  0.001  0.000
    6.00  0.001  0.000
    7.00  0.001  0.000
    8.00  0.001  0.000
    9.00  0.001  0.000
   10.00  0.001  0.000
   11.00  0.001  0.000
   12.00  0.001  0.000
   13.00  0.001  0.000
   14.00  0.001  0.000
   15.00  0.001  0.000
   16.00  0.001  0.000
   17.00  0.001  0.000
   18.00  0.001  0.000
   19.00  0.001  0.000
   20.00  0.001  0.000
   21.00  0.001  0.000
   22.00  0.001  0.000
   23.00  0.001  0.000
   24.00  0.001  0.000
   25.00  0.001  0.000
   26.00  0.001  0.000
   27.00  0.001  0.000
   28.00  0.001  0.000
   29.00  0.001  0.000
   30.00  0.001  0.000
   31.00  0.001  0.000
   32.00  0.001  0.000
   33.00  0.001  0.000
   34.00  0.001  0.000
   35.00  0.001  0.000
   36.00  0.001  0.000
   37.00  0.001  0.000
   38.00  0.001  0.000
   39.00  0.001  0.000
   40.00  0.001  0.000
   41.00  0.001  0.000
   42.00  0.001  0.000
   43.00  0.001  0.000
   44.00  0.001  0.000
   45.00  0.001  0.000
   46.00  0.001  0.000
   47.00  0.001  0.000
   48.00  0.001  0.000
   49.00  0.001  0.000
   50.00  0.001  0.000
   51.00  0.001  0.000
   52.00  0.001  0.000
   53.00  0.001  0.000
   54.00  0.001  0.000
   55.00  0.001  0.000
   56.00  0.001  0.000
   57.00  0.001  0.000
   58.00  0.001  0.000
   59.00  0.001  0.000
   60.00  0.001  0.000
   61.00  0.001  0.000
   62.00  0.002  0.000
   63.00  0.002  0.000
   64.00  0.002  0.000
   65.00  0.002  0.000
   66.00  0.002  0.000
   67.00  0.002  0.000
   68.00  0.002  0.000
   69.00  0.002  0.000
   70.00  0.002  0.000
   71.00  0.002  0.000
   72.00  0.002  0.000
   73.00  0.002  0.000
   74.00  0.002  0.000
   75.00  0.002  0.000
   76.00  0.002  0.000
   77.00  0.002  0.000
   78.00  0.002  0.000
   79.00  0.002  0.000
   80.00  0.002  0.000
   81.00  0.002  0.000
   82.00  0.003  0.000
   83.00  0.003  0.000
   84.00  0.003  0.000
   85.00  0.003  0.000
   86.00  0.003  0.000
   87.00  0.003  0.000
   88.00  0.003  0.000
   89.00  0.003  0.000
   90.00  0.004  0.000
   91.00  0.004  0.000
   92.00  0.004  0.000
   93.00  0.004  0.000
   94.00  0.005  0.000
   95.00  0.005  0.000
   96.00  0.006  0.000
   97.00  0.007  0.000
   98.00  0.007  0.000
   99.00  0.008  0.000
  100.00  0.010  0.000
  101.00  0.011  0.000
  102.00  0.013  0.000
  103.00  0.015  0.000
  104.00  0.016  0.000
  105.00  0.017  0.000
  106.00  0.017  0.000
  107.00  0.016  0.000
  108.00  0.014  0.000
  109.00  0.013  0.000
  110.00  0.011  0.000
  111.00  0.011  0.000
  112.00  0.010  0.000
  113.00  0.010  0.000
  114.00  0.009  0.000
  115.00  0.009  0.000
  116.00  0.010  0.000
  117.00  0.010  0.000
  118.00  0.010  0.000
  119.00  0.011  0.000
  120.00  0.012  0.000
  121.00  0.013  0.000
  122.00  0.015  0.000
  123.00  0.017  0.000
  124.00  0.020  0.000
  125.00  0.023  0.000
  126.00  0.027  0.000
  127.00  0.031  0.000
  128.00  0.035  0.000
  129.00  0.039  0.000
  130.00  0.040  0.000
  131.00  0.038  0.000
  132.00  0.035  0.000
  133.00  0.031  0.000
  134.00  0.028  0.000
  135.00  0.025  0.000
  136.00  0.023  0.000
  137.00  0.021  0.000
  138.00  0.020  0.000
  139.00  0.019  0.000
  140.00  0.019  0.000
  141.00  0.019  0.000
  142.00  0.020  0.000
  143.00  0.020  0.000
  144.00  0.022  0.000
  145.00  0.023  0.000
  146.00  0.025  0.000
  147.00  0.028  0.000
  148.00  0.031  0.000
  149.00  0.034  0.000
  150.00  0.039  0.000
  151.00  0.045  0.000
  152.00  0.053  0.000
  153.00  0.062  0.000
  154.00  0.075  0.000
  155.00  0.090  0.000
  156.00  0.109  0.000
  157.00  0.132  0.000
  158.00  0.156  0.000
  159.00  0.177  0.000
  160.00  0.189  0.000
  161.00  0.187  0.000
  162.00  0.172  0.000
  163.00  0.149  0.000
  164.00  0.126  0.000
  165.00  0.104  0.000
  166.00  0.086  0.000
  167.00  0.072  0.000
  168.00  0.060  0.000
  169.00  0.051  0.000
  170.00  0.044  0.000
  171.00  0.039  0.000
  172.00  0.034  0.000
  173.00  0.031  0.000
  174.00  0.028  0.000
  175.00  0.026  0.000
  176.00  0.025  0.000
  177.00  0.023  0.000
  178.00  0.023  0.000
  179.00  0.022  0.000
  180.00  0.022  0.000
  181.00  0.023  0.000
  182.00  0.024  0.000
  183.00  0.025  0.000
  184.00  0.028  0.001
  185.00  0.031  0.001
  186.00  0.035  0.001
  187.00  0.039  0.001
  188.00  0.043  0.001
  189.00  0.046  0.001
  190.00  0.045  0.001
  191.00  0.043  0.001
  192.00  0.038  0.001
  193.00  0.033  0.001
  194.00  0.029  0.001
  195.00  0.025  0.001
  196.00  0.022  0.001
  197.00  0.019  0.001
  198.00  0.018  0.002
  199.00  0.016  0.002
  200.00  0.015  0.002
  201.00  0.014  0.002
  202.00  0.013  0.003
  203.00  0.013  0.003
  204.00  0.012  0.004
  205.00  0.012  0.004
  206.00  0.012  0.005
  207.00  0.012  0.007
  208.00  0.012  0.008
  209.00  0.012  0.010
  210.00  0.012  0.011
  211.00  0.012  0.012
  212.00  0.012  0.012
  213.00  0.013  0.012
  214.00  0.013  0.011
  215.00  0.014  0.009
  216.00  0.014  0.007
  217.00  0.015  0.006
  218.00  0.016  0.005
  219.00  0.017  0.004
  220.00  0.018  0.004
  221.00  0.020  0.003
  222.00  0.021  0.003
  223.00  0.023  0.002
  224.00  0.026  0.002
  225.00  0.029  0.002
  226.00  0.032  0.002
  227.00  0.036  0.001
  228.00  0.041  0.001
  229.00  0.048  0.001
  230.00  0.056  0.001
  231.00  0.065  0.001
  232.00  0.078  0.001
  233.00  0.094  0.001
  234.00  0.114  0.001
  235.00  0.137  0.001
  236.00  0.164  0.001
  237.00  0.190  0.001
  238.00  0.209  0.001
  239.00  0.214  0.001
  240.00  0.203  0.001
  241.00  0.181  0.001
  242.00  0.155  0.001
  243.00  0.129  0.001
  244.00  0.108  0.001
  245.00  0.090  0.001
  246.00  0.076  0.001
  247.00  0.066  0.001
  248.00  0.058  0.001
  249.00  0.052  0.001
  250.00  0.048  0.001
  251.00  0.045  0.001
  252.00  0.044  0.001
  253.00  0.044  0.001
  254.00  0.045  0.001
  255.00  0.047  0.001
  256.00  0.050  0.001
  257.00  0.052  0.001
  258.00  0.054  0.001
  259.00  0.052  0.001
  260.00  0.048  0.001
  261.00  0.043  0.001
  262.00  0.038  0.001
  263.00  0.033  0.001
  264.00  0.028  0.001
  265.00  0.025  0.001
  266.00  0.022  0.001
  267.00  0.020  0.002
  268.00  0.018  0.002
  269.00  0.017  0.002
  270.00  0.015  0.002
  271.00  0.014  0.003
  272.00  0.014  0.003
  273.00  0.013  0.004
  274.00  0.012  0.004
  275.00  0.012  0.005
  276.00  0.011  0.006
  277.00  0.011  0.008
  278.00  0.011  0.009
  279.00  0.010  0.011
  280.00  0.010  0.012
  281.00  0.010  0.012
  282.00  0.010  0.011
  283.00  0.010  0.010
  284.00  0.010  0.009
  285.00  0.010  0.007
  286.00  0.010  0.006
  287.00  0.010  0.005
  288.00  0.010  0.004
  289.00  0.010  0.003
  290.00  0.010  0.003
  291.00  0.010  0.003
  292.00  0.010  0.002
  293.00  0.010  0.002
  294.00  0.010  0.002
  295.00  0.010  0.002
  296.00  0.011  0.001
  297.00  0.011  0.001
  298.00  0.011  0.001
  299.00  0.011  0.001
  300.00  0.012  0.001
  301.00  0.012  0.001
  302.00  0.012  0.001
  303.00  0.013  0.001
  304.00  0.013  0.001
  305.00  0.014  0.001
  306.00  0.014  0.001
  307.00  0.015  0.001
  308.00  0.015  0.001
  309.00  0.016  0.001
  310.00  0.017  0.001
  311.00  0.017  0.001
  312.00  0.018  0.001
  313.00  0.019  0.001
  314.00  0.020  0.000
  315.00  0.021  0.000
  316.00  0.023  0.000
  317.00  0.024  0.000
  318.00  0.026  0.000
  319.00  0.027  0.000
  320.00  0.029  0.000
  321.00  0.031  0.000
  322.00  0.034  0.000
  323.00  0.037  0.000
  324.00  0.040  0.000
  325.00  0.043  0.000
  326.00  0.048  0.000
  327.00  0.052  0.000
  328.00  0.058  0.000
  329.00  0.064  0.000
  330.00  0.072  0.000
  331.00  0.081  0.000
  332.00  0.092  0.000
  333.00  0.106  0.000
  334.00  0.122  0.000
  335.00  0.142  0.000
  336.00  0.167  0.000
  337.00  0.199  0.000
  338.00  0.238  0.000
  339.00  0.289  0.000
  340.00  0.352  0.000
  341.00  0.428  0.000
  342.00  0.516  0.000
  343.00  0.604  0.000
  344.00  0.674  0.000
  345.00  0.700  0.000
  346.00  0.673  0.000
  347.00  0.604  0.000
  348.00  0.515  0.000
  349.00  0.428  0.000
  350.00  0.351  0.000
  351.00  0.288  0.000
  352.00  0.238  0.000
  353.00  0.198  0.000
  354.00  0.167  0.000
  355.00  0.142  0.000
  356.00  0.122  0.000
  357.00  0.106  0.000
  358.00  0.093  0.000
  359.00  0.082  0.000
  360.00  0.072  0.000
  361.00  0.065  0.000
  362.00  0.058  0.000
  363.00  0.053  0.000
  364.00  0.048  0.000
  365.00  0.044  0.000
  366.00  0.040  0.000
  367.00  0.037  0.000
  368.00  0.035  0.000
  369.00  0.032  0.000
  370.00  0.030  0.000
  371.00  0.028  0.000
  372.00  0.026  0.000
  373.00  0.025  0.000
  374.00  0.024  0.000
  375.00  0.022  0.000
  376.00  0.021  0.000
  377.00  0.020  0.000
  378.00  0.019  0.000
  379.00  0.019  0.000
  380.00  0.018  0.000
  381.00  0.017  0.000
  382.00  0.017  0.000
  383.00  0.016  0.000
  384.00  0.016  0.000
  385.00  0.015  0.000
  386.00  0.015  0.000
  387.00  0.015  0.001
  388.00  0.014  0.001
  389.00  0.014  0.001
  390.00  0.014  0.001
  391.00  0.014  0.001
  392.00  0.014  0.001
  393.00  0.013  0.001
  394.00  0.013  0.001
  395.00  0.013  0.001
  396.00  0.013  0.001
  397.00  0.013  0.001
  398.00  0.014  0.001
  399.00  0.014  0.001
  400.00  0.014  0.001
  401.00  0.014  0.001
  402.00  0.014  0.001
  403.00  0.015  0.001
  404.00  0.015  0.001
  405.00  0.016  0.001
  406.00  0.016  0.001
  407.00  0.017  0.001
  408.00  0.018  0.001
  409.00  0.019  0.001
  410.00  0.020  0.001
  411.00  0.021  0.001
  412.00  0.023  0.001
  413.00  0.024  0.001
  414.00  0.027  0.002
  415.00  0.029  0.002
  416.00  0.032  0.002
  417.00  0.036  0.002
  418.00  0.041  0.002
  419.00  0.047  0.002
  420.00  0.054  0.003
  421.00  0.063  0.003
  422.00  0.075  0.004
  423.00  0.089  0.004
  424.00  0.108  0.005
  425.00  0.130  0.006
  426.00  0.154  0.007
  427.00  0.177  0.009
  428.00  0.193  0.011
  429.00  0.197  0.012
  430.00  0.186  0.014
  431.00  0.165  0.015
  432.00  0.140  0.015
  433.00  0.117  0.014
  434.00  0.097  0.012
  435.00  0.081  0.010
  436.00  0.069  0.008
  437.00  0.059  0.007
  438.00  0.051  0.006
  439.00  0.045  0.005
  440.00  0.040  0.004
  441.00  0.036  0.004
  442.00  0.032  0.003
  443.00  0.030  0.003
  444.00  0.028  0.002
  445.00  0.026  0.002
  446.00  0.025  0.002
  447.00  0.023  0.002
  448.00  0.022  0.002
  449.00  0.022  0.002
  450.00  0.021  0.001
  451.00  0.021  0.001
  452.00  0.021  0.001
  453.00  0.020  0.001
  454.00  0.020  0.001
  455.00  0.020  0.001
  456.00  0.021  0.001
  457.00  0.021  0.001
  458.00  0.021  0.001
  459.00  0.022  0.001
  460.00  0.022  0.001
  461.00  0.023  0.001
  462.00  0.024  0.001
  463.00  0.025  0.001
  464.00  0.026  0.001
  465.00  0.027  0.001
  466.00  0.029  0.001
  467.00  0.031  0.001
  468.00  0.033  0.001
  469.00  0.035  0.001
  470.00  0.038  0.001
  471.00  0.041  0.001
  472.00  0.044  0.001
  473.00  0.048  0.001
  474.00  0.053  0.001
  475.00  0.059  0.001
  476.00  0.065  0.001
  477.00  0.073  0.001
  478.00  0.082  0.001
  479.00  0.094  0.001
  480.00  0.108  0.001
  481.00  0.125  0.001
  482.00  0.147  0.001
  483.00  0.174  0.001
  484.00  0.208  0.001
  485.00  0.251  0.001
  486.00  0.305  0.001
  487.00  0.372  0.001
  488.00  0.449  0.001
  489.00  0.530  0.001
  490.00  0.597  0.001
  491.00  0.629  0.001
  492.00  0.614  0.001
  493.00  0.557  0.001
  494.00  0.479  0.001
  495.00  0.399  0.001
  496.00  0.328  0.001
  497.00  0.269  0.001
  498.00  0.222  0.001
  499.00  0.184  0.001
  500.00  0.155  0.001
  501.00  0.132  0.001
  502.00  0.113  0.001
  503.00  0.098  0.001
  504.00  0.085  0.001
  505.00  0.075  0.001
  506.00  0.066  0.001
  507.00  0.059  0.001
  508.00  0.053  0.001
  509.00  0.048  0.001
  510.00  0.044  0.001
  511.00  0.040  0.001
  512.00  0.036  0.001
  513.00  0.033  0.001
  514.00  0.031  0.001
  515.00  0.029  0.001
  516.00  0.027  0.001
  517.00  0.025  0.001
  518.00  0.023  0.001
  519.00  0.022  0.001
  520.00  0.020  0.001
  521.00  0.019  0.001
  522.00  0.018  0.001
  523.00  0.017  0.001
  524.00  0.016  0.001
  525.00  0.016  0.001
  526.00  0.015  0.001
  527.00  0.014  0.001
  528.00  0.014  0.001
  529.00  0.013  0.002
  530.00  0.013  0.002
  531.00  0.012  0.002
  532.00  0.012  0.002
  533.00  0.011  0.002
  534.00  0.011  0.002
  535.00  0.011  0.002
  536.00  0.010  0.002
  537.00  0.010  0.002
  538.00  0.010  0.002
  539.00  0.010  0.002
  540.00  0.010  0.002
  541.00  0.010  0.002
  542.00  0.010  0.002
  543.00  0.010  0.002
  544.00  0.010  0.002
  545.00  0.010  0.002
  546.00  0.010  0.002
  547.00  0.010  0.002
  548.00  0.011  0.002
  549.00  0.012  0.002
  550.00  0.013  0.002
  551.00  0.014  0.002
  552.00  0.015  0.002
  553.00  0.016  0.003
  554.00  0.018  0.003
  555.00  0.020  0.003
  556.00  0.022  0.003
  557.00  0.024  0.003
  558.00  0.025  0.003
  559.00  0.025  0.003
  560.00  0.024  0.003
  561.00  0.022  0.003
  562.00  0.020  0.003
  563.00  0.017  0.003
  564.00  0.015  0.003
  565.00  0.013  0.004
  566.00  0.012  0.004
  567.00  0.011  0.004
  568.00  0.010  0.004
  569.00  0.009  0.004
  570.00  0.009  0.004
  571.00  0.008  0.004
  572.00  0.008  0.004
  573.00  0.008  0.005
  574.00  0.008  0.005
  575.00  0.008  0.005
  576.00  0.009  0.005
  577.00  0.010  0.005
  578.00  0.010  0.005
  579.00  0.011  0.006
  580.00  0.013  0.006
  581.00  0.014  0.006
  582.00  0.014  0.006
  583.00  0.014  0.007
  584.00  0.013  0.007
  585.00  0.012  0.007
  586.00  0.010  0.008
  587.00  0.009  0.008
  588.00  0.008  0.008
  589.00  0.007  0.009
  590.00  0.006  0.009
  591.00  0.006  0.010
  592.00  0.005  0.010
  593.00  0.005  0.011
  594.00  0.005  0.012
  595.00  0.004  0.012
  596.00  0.004  0.013
  597.00  0.004  0.014
  598.00  0.004  0.015
  599.00  0.004  0.016
  600.00  0.004  0.017
  601.00  0.004  0.019
  602.00  0.003  0.020
  603.00  0.003  0.022
  604.00  0.003  0.024
  605.00  0.003  0.026
  606.00  0.003  0.029
  607.00  0.003  0.031
  608.00  0.003  0.035
  609.00  0.003  0.039
  610.00  0.003  0.043
  611.00  0.003  0.049
  612.00  0.003  0.055
  613.00  0.003  0.063
  614.00  0.003  0.072
  615.00  0.003  0.084
  616.00  0.003  0.098
  617.00  0.003  0.116
  618.00  0.003  0.139
  619.00  0.003  0.167
  620.00  0.003  0.203
  621.00  0.003  0.248
  622.00  0.003  0.302
  623.00  0.003  0.360
  624.00  0.003  0.415
  625.00  0.003  0.450
  626.00  0.003  0.454
  627.00  0.003  0.423
  628.00  0.002  0.371
  629.00  0.002  0.312
  630.00  0.002  0.257
  631.00  0.002  0.211
  632.00  0.002  0.174
  633.00  0.002  0.144
  634.00  0.002  0.120
  635.00  0.002  0.102
  636.00  0.002  0.087
  637.00  0.002  0.075
  638.00  0.002  0.065
  639.00  0.002  0.057
  640.00  0.002  0.050
  641.00  0.002  0.045
  642.00  0.002  0.040
  643.00  0.002  0.036
  644.00  0.002  0.033
  645.00  0.002  0.030
  646.00  0.002  0.028
  647.00  0.002  0.025
  648.00  0.002  0.024
  649.00  0.002  0.022
  650.00  0.002  0.020
  651.00  0.002  0.019
  652.00  0.002  0.018
  653.00  0.003  0.017
  654.00  0.003  0.016
  655.00  0.003  0.015
  656.00  0.003  0.014
  657.00  0.003  0.014
  658.00  0.003  0.013
  659.00  0.003  0.013
  660.00  0.003  0.012
  661.00  0.003  0.012
  662.00  0.003  0.011
  663.00  0.003  0.011
  664.00  0.003  0.011
  665.00  0.003  0.011
  666.00  0.003  0.010
  667.00  0.003  0.010
  668.00  0.003  0.010
  669.00  0.003  0.010
  670.00  0.003  0.010
  671.00  0.003  0.010
  672.00  0.003  0.010
  673.00  0.003  0.010
  674.00  0.003  0.010
  675.00  0.003  0.010
  676.00  0.003  0.010
  677.00  0.004  0.010
  678.00  0.004  0.010
  679.00  0.004  0.010
  680.00  0.004  0.011
  681.00  0.004  0.011
  682.00  0.004  0.011
  683.00  0.004  0.011
  684.00  0.005  0.012
  685.00  0.005  0.012
  686.00  0.005  0.013
  687.00  0.005  0.013
  688.00  0.006  0.014
  689.00  0.006  0.015
  690.00  0.007  0.016
  691.00  0.007  0.016
  692.00  0.008  0.018
  693.00  0.009  0.019
  694.00  0.011  0.020
  695.00  0.012  0.022
  696.00  0.014  0.024
  697.00  0.017  0.026
  698.00  0.020  0.028
  699.00  0.023  0.031
  700.00  0.027  0.034
  701.00  0.031  0.038
  702.00  0.034  0.043
  703.00  0.035  0.049
  704.00  0.033  0.056
  705.00  0.029  0.065
  706.00  0.025  0.075
  707.00  0.021  0.089
  708.00  0.018  0.106
  709.00  0.016  0.127
  710.00  0.013  0.154
  711.00  0.012  0.188
  712.00  0.011  0.228
  713.00  0.010  0.273
  714.00  0.009  0.316
  715.00  0.008  0.345
  716.00  0.008  0.350
  717.00  0.007  0.329
  718.00  0.007  0.290
  719.00  0.007  0.245
  720.00  0.006  0.202
  721.00  0.006  0.166
  722.00  0.006  0.136
  723.00  0.006  0.113
  724.00  0.006  0.094
  725.00  0.006  0.080
  726.00  0.006  0.068
  727.00  0.006  0.058
  728.00  0.006  0.051
  729.00  0.006  0.044
  730.00  0.006  0.039
  731.00  0.006  0.035
  732.00  0.006  0.031
  733.00  0.006  0.028
  734.00  0.006  0.025
  735.00  0.006  0.023
  736.00  0.007  0.021
  737.00  0.007  0.019
  738.00  0.007  0.018
  739.00  0.007  0.016
  740.00  0.007  0.015
  741.00  0.008  0.014
  742.00  0.008  0.013
  743.00  0.008  0.012
  744.00  0.008  0.011
  745.00  0.009  0.011
  746.00  0.009  0.010
  747.00  0.009  0.010
  748.00  0.010  0.009
  749.00  0.010  0.009
  750.00  0.011  0.008
  751.00  0.011  0.008
  752.00  0.012  0.007
  753.00  0.013  0.007
  754.00  0.013  0.007
  755.00  0.014  0.006
  756.00  0.015  0.006
  757.00  0.016  0.006
  758.00  0.017  0.006
  759.00  0.019  0.005
  760.00  0.020  0.005
  761.00  0.022  0.005
  762.00  0.024  0.005
  763.00  0.026  0.005
  764.00  0.029  0.004
  765.00  0.032  0.004
  766.00  0.036  0.004
  767.00  0.040  0.004
  768.00  0.045  0.004
  769.00  0.052  0.004
  770.00  0.060  0.004
  771.00  0.070  0.003
  772.00  0.083  0.003
  773.00  0.099  0.003
  774.00  0.119  0.003
  775.00  0.143  0.003
  776.00  0.174  0.003
  777.00  0.208  0.003
  778.00  0.241  0.003
  779.00  0.268  0.003
  780.00  0.278  0.003
  781.00  0.270  0.003
  782.00  0.249  0.002
  783.00  0.223  0.002
  784.00  0.198  0.002
  785.00  0.176  0.002
  786.00  0.156  0.002
  787.00  0.136  0.002
  788.00  0.117  0.002
  789.00  0.100  0.002
  790.00  0.085  0.002
  791.00  0.072  0.002
  792.00  0.062  0.002
  793.00  0.054  0.002
  794.00  0.048  0.002
  795.00  0.042  0.002
  796.00  0.038  0.002
  797.00  0.035  0.002
  798.00  0.032  0.002
  799.00  0.029  0.002
  800.00  0.027  0.002
  801.00  0.025  0.002
  802.00  0.024  0.002
  803.00  0.023  0.002
  804.00  0.022  0.002
  805.00  0.021  0.002
  806.00  0.020  0.001
  807.00  0.019  0.001
  808.00  0.019  0.001
  809.00  0.018  0.001
  810.00  0.018  0.001
  811.00  0.018  0.001
  812.00  0.018  0.001
  813.00  0.018  0.001
  814.00  0.018  0.001
  815.00  0.018  0.001
  816.00  0.018  0.001
  817.00  0.018  0.001
  818.00  0.018  0.001
  819.00  0.018  0.001
  820.00  0.019  0.001
  821.00  0.019  0.001
  822.00  0.020  0.001
  823.00  0.020  0.001
  824.00  0.021  0.001
  825.00  0.021  0.001
  826.00  0.022  0.001
  827.00  0.023  0.001
  828.00  0.024  0.001
  829.00  0.025  0.001
  830.00  0.026  0.001
  831.00  0.027  0.001
  832.00  0.029  0.001
  833.00  0.030  0.001
  834.00  0.032  0.001
  835.00  0.034  0.001
  836.00  0.036  0.001
  837.00  0.039  0.001
  838.00  0.042  0.001
  839.00  0.045  0.001
  840.00  0.048  0.001
  841.00  0.052  0.001
  842.00  0.057  0.001
  843.00  0.063  0.001
  844.00  0.069  0.001
  845.00  0.076  0.001
  846.00  0.085  0.001
  847.00  0.095  0.001
  848.00  0.106  0.001
  849.00  0.121  0.001
  850.00  0.138  0.001
  851.00  0.159  0.001
  852.00  0.185  0.002
  853.00  0.218  0.002
  854.00  0.258  0.002
  855.00  0.310  0.002
  856.00  0.374  0.002
  857.00  0.454  0.003
  858.00  0.551  0.003
  859.00  0.659  0.003
  860.00  0.767  0.004
  861.00  0.858  0.004
  862.00  0.908  0.003
  863.00  0.904  0.003
  864.00  0.844  0.003
  865.00  0.745  0.002
  866.00  0.631  0.002
  867.00  0.523  0.002
  868.00  0.430  0.002
  869.00  0.354  0.002
  870.00  0.294  0.001
  871.00  0.245  0.001
  872.00  0.207  0.001
  873.00  0.177  0.001
  874.00  0.152  0.001
  875.00  0.132  0.001
  876.00  0.116  0.001
  877.00  0.102  0.001
  878.00  0.091  0.001
  879.00  0.081  0.001
  880.00  0.073  0.001
  881.00  0.066  0.001
  882.00  0.060  0.001
  883.00  0.055  0.001
  884.00  0.050  0.001
  885.00  0.046  0.001
  886.00  0.043  0.001
  887.00  0.039  0.001
  888.00  0.037  0.001
  889.00  0.034  0.001
  890.00  0.032  0.001
  891.00  0.030  0.001
  892.00  0.028  0.001
  893.00  0.027  0.001
  894.00  0.025  0.001
  895.00  0.024  0.001
  896.00  0.022  0.001
  897.00  0.021  0.001
  898.00  0.020  0.001
  899.00  0.019  0.001
  900.00  0.019  0.001
  901.00  0.018  0.001
  902.00  0.017  0.002
  903.00  0.016  0.002
  904.00  0.016  0.002
  905.00  0.015  0.002
  906.00  0.015  0.002
  907.00  0.014  0.002
  908.00  0.014  0.003
  909.00  0.014  0.003
  910.00  0.013  0.004
  911.00  0.013  0.004
  912.00  0.013  0.005
  913.00  0.013  0.006
  914.00  0.013  0.007
  915.00  0.013  0.008
  916.00  0.013  0.010
  917.00  0.013  0.012
  918.00  0.014  0.013
  919.00  0.014  0.014
  920.00  0.015  0.013
  921.00  0.016  0.012
  922.00  0.018  0.011
  923.00  0.019  0.009
  924.00  0.022  0.007
  925.00  0.025  0.006
  926.00  0.028  0.005
  927.00  0.032  0.004
  928.00  0.036  0.004
  929.00  0.038  0.003
  930.00  0.037  0.003
  931.00  0.034  0.002
  932.00  0.031  0.002
  933.00  0.026  0.002
  934.00  0.023  0.002
  935.00  0.019  0.002
  936.00  0.017  0.002
  937.00  0.015  0.001
  938.00  0.013  0.001
  939.00  0.012  0.001
  940.00  0.011  0.001
  941.00  0.010  0.001
  942.00  0.009  0.001
  943.00  0.009  0.001
  944.00  0.008  0.001
  945.00  0.008  0.001
  946.00  0.007  0.001
  947.00  0.007  0.001
  948.00  0.007  0.001
  949.00  0.007  0.001
  950.00  0.007  0.001
  951.00  0.007  0.001
  952.00  0.006  0.001
  953.00  0.006  0.001
  954.00  0.007  0.001
  955.00  0.007  0.001
  956.00  0.007  0.001
  957.00  0.007  0.001
  958.00  0.008  0.001
  959.00  0.008  0.001
  960.00  0.009  0.001
  961.00  0.010  0.001
  962.00  0.011  0.001
  963.00  0.011  0.001
  964.00  0.012  0.001
  965.00  0.011  0.001
  966.00  0.010  0.001
  967.00  0.009  0.001
  968.00  0.008  0.001
  969.00  0.008  0.001
  970.00  0.007  0.001
  971.00  0.006  0.001
  972.00  0.006  0.002
  973.00  0.005  0.002
  974.00  0.005  0.002
  975.00  0.005  0.002
  976.00  0.005  0.002
  977.00  0.005  0.002
  978.00  0.004  0.003
  979.00  0.004  0.003
  980.00  0.004  0.003
  981.00  0.004  0.004
  982.00  0.005  0.004
  983.00  0.005  0.005
  984.00  0.005  0.006
  985.00  0.005  0.007
  986.00  0.006  0.009
  987.00  0.006  0.010
  988.00  0.007  0.013
  989.00  0.007  0.015
  990.00  0.008  0.017
  991.00  0.008  0.019
  992.00  0.008  0.019
  993.00  0.008  0.018
  994.00  0.007  0.016
  995.00  0.006  0.013
  996.00  0.006  0.011
  997.00  0.005  0.009
  998.00  0.005  0.007
  999.00  0.004  0.006
 1000.00  0.004  0.005
 1001.00  0.004  0.004
 1002.00  0.004  0.004
 1003.00  0.003  0.003
 1004.00  0.003  0.003
 1005.00  0.003  0.003
 1006.00  0.003  0.002
 1007.00  0.003  0.002
 1008.00  0.003  0.002
 1009.00  0.003  0.002
 1010.00  0.003  0.002
 1011.00  0.003  0.001
 1012.00  0.002  0.001
 1013.00  0.002  0.001
 1014.00  0.002  0.001
 1015.00  0.002  0.001
 1016.00  0.002  0.001
 1017.00  0.002  0.001
 1018.00  0.002  0.001
 1019.00  0.002  0.001
 1020.00  0.002  0.001
 1021.00  0.002  0.001
 1022.00  0.002  0.001
 1023.00  0.002  0.001
 1024.00  0.002  0.001
 1025.00  0.002  0.001
 1026.00  0.002  0.001
 1027.00  0.002  0.001
 1028.00  0.002  0.001
 1029.00  0.002  0.001
 1030.00  0.002  0.001
 1031.00  0.002  0.001
 1032.00  0.002  0.000
 1033.00  0.002  0.000
 1034.00  0.002  0.000
 1035.00  0.002  0.000
 1036.00  0.002  0.000
 1037.00  0.002  0.000
 1038.00  0.002  0.000
 1039.00  0.002  0.000
 1040.00  0.002  0.000
 1041.00  0.002  0.000
 1042.00  0.002  0.000
 1043.00  0.002  0.000
 1044.00  0.002  0.000
 1045.00  0.002  0.000
 1046.00  0.002  0.000
 1047.00  0.002  0.000
 1048.00  0.002  0.000
 1049.00  0.002  0.000
 1050.00  0.002  0.000
 1051.00  0.002  0.000
 1052.00  0.002  0.000
 1053.00  0.002  0.000
 1054.00  0.002  0.000
 1055.00  0.002  0.000
 1056.00  0.002  0.000
 1057.00  0.002  0.000
 1058.00  0.002  0.000
 1059.00  0.002  0.000
 1060.00  0.002  0.000
 1061.00  0.002  0.000
 1062.00  0.002  0.000
 1063.00  0.002  0.000
 1064.00  0.002  0.000
 1065.00  0.002  0.000
 1066.00  0.002  0.000
 1067.00  0.002  0.000
 1068.00  0.002  0.000
 1069.00  0.002  0.000
 1070.00  0.002  0.000
 1071.00  0.002  0.000
 1072.00  0.002  0.000
 1073.00  0.002  0.000
 1074.00  0.002  0.000
 1075.00  0.002  0.000
 1076.00  0.002  0.000
 1077.00  0.002  0.000
 1078.00  0.002  0.000
 1079.00  0.002  0.000
 1080.00  0.002  0.000
 1081.00  0.002  0.000
 1082.00  0.002  0.000
 1083.00  0.002  0.000
 1084.00  0.002  0.000
 1085.00  0.002  0.000
 1086.00  0.002  0.000
 1087.00  0.002  0.000
 1088.00  0.002  0.000
 1089.00  0.002  0.000
 1090.00  0.002  0.000
 1091.00  0.002  0.000
 1092.00  0.002  0.000
 1093.00  0.002  0.000
 1094.00  0.002  0.000
 1095.00  0.002  0.000
 1096.00  0.002  0.000
 1097.00  0.002  0.000
 1098.00  0.003  0.000
 1099.00  0.003  0.000
 1100.00  0.003  0.000
 1101.00  0.003  0.000
 1102.00  0.003  0.000
 1103.00  0.003  0.000
 1104.00  0.003  0.000
 1105.00  0.003  0.000
 1106.00  0.003  0.000
 1107.00  0.003  0.000
 1108.00  0.003  0.000
 1109.00  0.003  0.000
 1110.00  0.003  0.000
 1111.00  0.003  0.000
 1112.00  0.003  0.000
 1113.00  0.003  0.000
 1114.00  0.003  0.000
 1115.00  0.003  0.000
 1116.00  0.004  0.000
 1117.00  0.004  0.000
 1118.00  0.004  0.000
 1119.00  0.004  0.000
 1120.00  0.004  0.000
 1121.00  0.004  0.000
 1122.00  0.004  0.000
 1123.00  0.004  0.000
 1124.00  0.005  0.000
 1125.00  0.005  0.000
 1126.00  0.005  0.000
 1127.00  0.005  0.000
 1128.00  0.006  0.000
 1129.00  0.006  0.000
 1130.00  0.006  0.000
 1131.00  0.007  0.000
 1132.00  0.008  0.000
 1133.00  0.008  0.000
 1134.00  0.009  0.000
 1135.00  0.010  0.000
 1136.00  0.012  0.000
 1137.00  0.013  0.000
 1138.00  0.015  0.000
 1139.00  0.017  0.000
 1140.00  0.019  0.000
 1141.00  0.021  0.000
 1142.00  0.021  0.000
 1143.00  0.020  0.000
 1144.00  0.019  0.000
 1145.00  0.017  0.000
 1146.00  0.016  0.000
 1147.00  0.015  0.000
 1148.00  0.014  0.000
 1149.00  0.013  0.000
 1150.00  0.013  0.000
 1151.00  0.013  0.000
 1152.00  0.013  0.000
 1153.00  0.013  0.000
 1154.00  0.013  0.000
 1155.00  0.014  0.000
 1156.00  0.014  0.000
 1157.00  0.015  0.000
 1158.00  0.016  0.000
 1159.00  0.017  0.000
 1160.00  0.018  0.000
 1161.00  0.020  0.000
 1162.00  0.021  0.000
 1163.00  0.023  0.000
 1164.00  0.025  0.000
 1165.00  0.028  0.000
 1166.00  0.031  0.000
 1167.00  0.035  0.000
 1168.00  0.039  0.001
 1169.00  0.044  0.001
 1170.00  0.051  0.001
 1171.00  0.059  0.001
 1172.00  0.069  0.001
 1173.00  0.081  0.001
 1174.00  0.097  0.001
 1175.00  0.117  0.001
 1176.00  0.142  0.001
 1177.00  0.173  0.001
 1178.00  0.209  0.001
 1179.00  0.247  0.001
 1180.00  0.280  0.002
 1181.00  0.298  0.002
 1182.00  0.293  0.002
 1183.00  0.268  0.003
 1184.00  0.231  0.003
 1185.00  0.194  0.004
 1186.00  0.160  0.004
 1187.00  0.131  0.005
 1188.00  0.109  0.006
 1189.00  0.091  0.007
 1190.00  0.077  0.008
 1191.00  0.066  0.008
 1192.00  0.057  0.007
 1193.00  0.050  0.006
 1194.00  0.045  0.005
 1195.00  0.041  0.004
 1196.00  0.037  0.004
 1197.00  0.034  0.003
 1198.00  0.031  0.002
 1199.00  0.028  0.002
 1200.00  0.025  0.002
 1201.00  0.023  0.002
 1202.00  0.021  0.001
 1203.00  0.019  0.001
 1204.00  0.018  0.001
 1205.00  0.016  0.001
 1206.00  0.015  0.001
 1207.00  0.014  0.001
 1208.00  0.013  0.001
 1209.00  0.013  0.001
 1210.00  0.012  0.001
 1211.00  0.011  0.001
 1212.00  0.011  0.001
 1213.00  0.010  0.001
 1214.00  0.010  0.000
 1215.00  0.010  0.000
 1216.00  0.009  0.000
 1217.00  0.009  0.000
 1218.00  0.009  0.000
 1219.00  0.008  0.000
 1220.00  0.008  0.000
 1221.00  0.008  0.000
 1222.00  0.008  0.000
 1223.00  0.008  0.000
 1224.00  0.008  0.000
 1225.00  0.007  0.000
 1226.00  0.007  0.000
 1227.00  0.007  0.000
 1228.00  0.007  0.000
 1229.00  0.007  0.000
 1230.00  0.007  0.000
 1231.00  0.007  0.000
 1232.00  0.007  0.000
 1233.00  0.007  0.000
 1234.00  0.007  0.000
 1235.00  0.007  0.000
 1236.00  0.007  0.000
 1237.00  0.007  0.000
 1238.00  0.007  0.000
 1239.00  0.007  0.000
 1240.00  0.007  0.000
 1241.00  0.007  0.000
 1242.00  0.007  0.000
 1243.00  0.007  0.000
 1244.00  0.007  0.000
 1245.00  0.007  0.000
 1246.00  0.007  0.000
 1247.00  0.007  0.000
 1248.00  0.008  0.000
 1249.00  0.008  0.000
 1250.00  0.008  0.000
 1251.00  0.008  0.000
 1252.00  0.008  0.000
 1253.00  0.008  0.000
 1254.00  0.009  0.000
 1255.00  0.009  0.000
 1256.00  0.009  0.000
 1257.00  0.009  0.000
 1258.00  0.009  0.000
 1259.00  0.010  0.000
 1260.00  0.010  0.000
 1261.00  0.010  0.000
 1262.00  0.011  0.000
 1263.00  0.011  0.000
 1264.00  0.011  0.000
 1265.00  0.012  0.000
 1266.00  0.012  0.000
 1267.00  0.013  0.000
 1268.00  0.013  0.000
 1269.00  0.014  0.000
 1270.00  0.014  0.000
 1271.00  0.015  0.000
 1272.00  0.015  0.000
 1273.00  0.016  0.000
 1274.00  0.017  0.000
 1275.00  0.018  0.000
 1276.00  0.019  0.000
 1277.00  0.020  0.000
 1278.00  0.021  0.000
 1279.00  0.022  0.000
 1280.00  0.024  0.000
 1281.00  0.025  0.000
 1282.00  0.027  0.000
 1283.00  0.029  0.000
 1284.00  0.031  0.000
 1285.00  0.033  0.000
 1286.00  0.036  0.000
 1287.00  0.038  0.000
 1288.00  0.042  0.000
 1289.00  0.046  0.000
 1290.00  0.050  0.000
 1291.00  0.055  0.000
 1292.00  0.061  0.001
 1293.00  0.068  0.001
 1294.00  0.075  0.001
 1295.00  0.085  0.001
 1296.00  0.096  0.001
 1297.00  0.110  0.001
 1298.00  0.126  0.001
 1299.00  0.147  0.001
 1300.00  0.172  0.001
 1301.00  0.204  0.001
 1302.00  0.243  0.001
 1303.00  0.294  0.001
 1304.00  0.357  0.001
 1305.00  0.436  0.001
 1306.00  0.529  0.001
 1307.00  0.629  0.001
 1308.00  0.719  0.001
 1309.00  0.773  0.001
 1310.00  0.770  0.001
 1311.00  0.711  0.001
 1312.00  0.618  0.002
 1313.00  0.518  0.002
 1314.00  0.427  0.002
 1315.00  0.350  0.002
 1316.00  0.288  0.002
 1317.00  0.239  0.003
 1318.00  0.200  0.003
 1319.00  0.169  0.003
 1320.00  0.145  0.004
 1321.00  0.125  0.004
 1322.00  0.109  0.005
 1323.00  0.096  0.006
 1324.00  0.085  0.007
 1325.00  0.075  0.008
 1326.00  0.068  0.010
 1327.00  0.061  0.012
 1328.00  0.055  0.014
 1329.00  0.050  0.017
 1330.00  0.046  0.021
 1331.00  0.043  0.024
 1332.00  0.039  0.027
 1333.00  0.037  0.028
 1334.00  0.034  0.027
 1335.00  0.032  0.024
 1336.00  0.030  0.021
 1337.00  0.028  0.017
 1338.00  0.027  0.014
 1339.00  0.025  0.011
 1340.00  0.024  0.009
 1341.00  0.023  0.008
 1342.00  0.022  0.007
 1343.00  0.021  0.006
 1344.00  0.021  0.005
 1345.00  0.020  0.004
 1346.00  0.019  0.004
 1347.00  0.019  0.003
 1348.00  0.019  0.003
 1349.00  0.018  0.003
 1350.00  0.018  0.002
 1351.00  0.018  0.002
 1352.00  0.018  0.002
 1353.00  0.018  0.002
 1354.00  0.018  0.002
 1355.00  0.019  0.001
 1356.00  0.019  0.001
 1357.00  0.019  0.001
 1358.00  0.020  0.001
 1359.00  0.021  0.001
 1360.00  0.022  0.001
 1361.00  0.023  0.001
 1362.00  0.025  0.001
 1363.00  0.027  0.001
 1364.00  0.030  0.001
 1365.00  0.033  0.001
 1366.00  0.037  0.001
 1367.00  0.042  0.001
 1368.00  0.048  0.001
 1369.00  0.056  0.001
 1370.00  0.067  0.001
 1371.00  0.080  0.001
 1372.00  0.096  0.001
 1373.00  0.114  0.001
 1374.00  0.134  0.000
 1375.00  0.150  0.000
 1376.00  0.158  0.000
 1377.00  0.154  0.000
 1378.00  0.140  0.000
 1379.00  0.121  0.000
 1380.00  0.102  0.000
 1381.00  0.085  0.000
 1382.00  0.070  0.000
 1383.00  0.059  0.000
 1384.00  0.050  0.000
 1385.00  0.043  0.000
 1386.00  0.037  0.000
 1387.00  0.032  0.000
 1388.00  0.029  0.000
 1389.00  0.026  0.000
 1390.00  0.023  0.000
 1391.00  0.021  0.000
 1392.00  0.020  0.000
 1393.00  0.018  0.000
 1394.00  0.017  0.000
 1395.00  0.016  0.000
 1396.00  0.016  0.000
 1397.00  0.015  0.000
 1398.00  0.015  0.000
 1399.00  0.015  0.000
 1400.00  0.015  0.000
 1401.00  0.015  0.000
 1402.00  0.015  0.000
 1403.00  0.015  0.000
 1404.00  0.015  0.000
 1405.00  0.015  0.000
 1406.00  0.015  0.000
 1407.00  0.015  0.000
 1408.00  0.015  0.000
 1409.00  0.015  0.000
 1410.00  0.015  0.000
 1411.00  0.016  0.000
 1412.00  0.017  0.000
 1413.00  0.018  0.000
 1414.00  0.020  0.000
 1415.00  0.022  0.000
 1416.00  0.025  0.000
 1417.00  0.029  0.000
 1418.00  0.034  0.000
 1419.00  0.040  0.000
 1420.00  0.047  0.000
 1421.00  0.056  0.000
 1422.00  0.064  0.000
 1423.00  0.070  0.000
 1424.00  0.071  0.000
 1425.00  0.068  0.000
 1426.00  0.060  0.000
 1427.00  0.052  0.000
 1428.00  0.043  0.000
 1429.00  0.036  0.000
 1430.00  0.030  0.000
 1431.00  0.026  0.000
 1432.00  0.022  0.000
 1433.00  0.019  0.000
 1434.00  0.017  0.000
 1435.00  0.015  0.000
 1436.00  0.013  0.000
 1437.00  0.012  0.000
 1438.00  0.011  0.000
 1439.00  0.010  0.000
 1440.00  0.010  0.000
 1441.00  0.009  0.000
 1442.00  0.008  0.000
 1443.00  0.008  0.000
 1444.00  0.008  0.000
 1445.00  0.007  0.000
 1446.00  0.007  0.000
 1447.00  0.007  0.000
 1448.00  0.007  0.000
 1449.00  0.006  0.000
 1450.00  0.006  0.000
 1451.00  0.006  0.000
 1452.00  0.006  0.000
 1453.00  0.006  0.000
 1454.00  0.006  0.000
 1455.00  0.006  0.000
 1456.00  0.006  0.000
 1457.00  0.006  0.000
 1458.00  0.006  0.000
 1459.00  0.006  0.000
 1460.00  0.006  0.000
 1461.00  0.007  0.000
 1462.00  0.007  0.000
 1463.00  0.007  0.000
 1464.00  0.007  0.000
 1465.00  0.008  0.000
 1466.00  0.008  0.000
 1467.00  0.009  0.000
 1468.00  0.010  0.000
 1469.00  0.010  0.000
 1470.00  0.012  0.000
 1471.00  0.013  0.000
 1472.00  0.015  0.000
 1473.00  0.017  0.000
 1474.00  0.020  0.000
 1475.00  0.023  0.000
 1476.00  0.028  0.000
 1477.00  0.033  0.000
 1478.00  0.039  0.000
 1479.00  0.045  0.000
 1480.00  0.049  0.000
 1481.00  0.051  0.000
 1482.00  0.048  0.000
 1483.00  0.043  0.000
 1484.00  0.037  0.000
 1485.00  0.031  0.000
 1486.00  0.026  0.000
 1487.00  0.022  0.000
 1488.00  0.019  0.000
 1489.00  0.016  0.000
 1490.00  0.014  0.000
 1491.00  0.012  0.000
 1492.00  0.011  0.000
 1493.00  0.010  0.000
 1494.00  0.009  0.000
 1495.00  0.008  0.000
 1496.00  0.007  0.000
 1497.00  0.007  0.000
 1498.00  0.007  0.000
 1499.00  0.006  0.000
 1500.00  0.006  0.000
 1501.00  0.006  0.000
 1502.00  0.005  0.000
 1503.00  0.005  0.000
 1504.00  0.005  0.000
 1505.00  0.005  0.000
 1506.00  0.005  0.000
 1507.00  0.005  0.000
 1508.00  0.004  0.000
 1509.00  0.004  0.000
 1510.00  0.004  0.000
 1511.00  0.004  0.000
 1512.00  0.004  0.001
 1513.00  0.004  0.001
 1514.00  0.004  0.001
 1515.00  0.004  0.001
 1516.00  0.004  0.001
 1517.00  0.004  0.001
 1518.00  0.004  0.001
 1519.00  0.004  0.001
 1520.00  0.004  0.001
 1521.00  0.004  0.001
 1522.00  0.004  0.001
 1523.00  0.004  0.001
 1524.00  0.004  0.001
 1525.00  0.004  0.001
 1526.00  0.004  0.002
 1527.00  0.004  0.002
 1528.00  0.004  0.002
 1529.00  0.004  0.002
 1530.00  0.004  0.003
 1531.00  0.004  0.003
 1532.00  0.004  0.004
 1533.00  0.004  0.004
 1534.00  0.004  0.005
 1535.00  0.004  0.007
 1536.00  0.004  0.008
 1537.00  0.004  0.010
 1538.00  0.004  0.012
 1539.00  0.004  0.013
 1540.00  0.004  0.015
 1541.00  0.004  0.015
 1542.00  0.004  0.014
 1543.00  0.005  0.012
 1544.00  0.005  0.010
 1545.00  0.005  0.009
 1546.00  0.005  0.007
 1547.00  0.005  0.006
 1548.00  0.005  0.005
 1549.00  0.005  0.004
 1550.00  0.005  0.003
 1551.00  0.005  0.003
 1552.00  0.005  0.002
 1553.00  0.005  0.002
 1554.00  0.005  0.002
 1555.00  0.006  0.002
 1556.00  0.006  0.001
 1557.00  0.006  0.001
 1558.00  0.006  0.001
 1559.00  0.006  0.001
 1560.00  0.006  0.001
 1561.00  0.006  0.001
 1562.00  0.007  0.001
 1563.00  0.007  0.001
 1564.00  0.007  0.001
 1565.00  0.007  0.001
 1566.00  0.007  0.001
 1567.00  0.007  0.001
 1568.00  0.008  0.001
 1569.00  0.008  0.001
 1570.00  0.008  0.000
 1571.00  0.008  0.000
 1572.00  0.009  0.000
 1573.00  0.009  0.000
 1574.00  0.009  0.000
 1575.00  0.010  0.000
 1576.00  0.010  0.000
 1577.00  0.010  0.000
 1578.00  0.011  0.000
 1579.00  0.011  0.000
 1580.00  0.011  0.000
 1581.00  0.012  0.000
 1582.00  0.012  0.000
 1583.00  0.013  0.000
 1584.00  0.013  0.000
 1585.00  0.014  0.000
 1586.00  0.015  0.000
 1587.00  0.015  0.000
 1588.00  0.016  0.000
 1589.00  0.017  0.000
 1590.00  0.018  0.000
 1591.00  0.019  0.000
 1592.00  0.020  0.000
 1593.00  0.021  0.000
 1594.00  0.022  0.000
 1595.00  0.023  0.000
 1596.00  0.024  0.000
 1597.00  0.026  0.000
 1598.00  0.028  0.000
 1599.00  0.029  0.000
 1600.00  0.031  0.000
 1601.00  0.034  0.000
 1602.00  0.036  0.000
 1603.00  0.039  0.000
 1604.00  0.042  0.000
 1605.00  0.046  0.000
 1606.00  0.050  0.000
 1607.00  0.054  0.000
 1608.00  0.059  0.000
 1609.00  0.065  0.000
 1610.00  0.072  0.000
 1611.00  0.080  0.000
 1612.00  0.090  0.000
 1613.00  0.101  0.000
 1614.00  0.114  0.000
 1615.00  0.129  0.000
 1616.00  0.149  0.000
 1617.00  0.172  0.000
 1618.00  0.201  0.000
 1619.00  0.237  0.000
 1620.00  0.282  0.000
 1621.00  0.339  0.000
 1622.00  0.411  0.000
 1623.00  0.501  0.000
 1624.00  0.611  0.000
 1625.00  0.737  0.000
 1626.00  0.863  0.000
 1627.00  0.962  0.000
 1628.00  1.000  0.000
 1629.00  0.961  0.000
 1630.00  0.861  0.000
 1631.00  0.734  0.000
 1632.00  0.609  0.000
 1633.00  0.499  0.000
 1634.00  0.409  0.000
 1635.00  0.338  0.000
 1636.00  0.281  0.000
 1637.00  0.236  0.000
 1638.00  0.200  0.000
 1639.00  0.171  0.000
 1640.00  0.148  0.000
 1641.00  0.129  0.000
 1642.00  0.113  0.000
 1643.00  0.100  0.000
 1644.00  0.089  0.000
 1645.00  0.080  0.000
 1646.00  0.072  0.000
 1647.00  0.065  0.000
 1648.00  0.059  0.000
 1649.00  0.054  0.000
 1650.00  0.049  0.000
 1651.00  0.045  0.000
 1652.00  0.042  0.000
 1653.00  0.039  0.000
 1654.00  0.036  0.000
 1655.00  0.034  0.000
 1656.00  0.031  0.000
 1657.00  0.029  0.000
 1658.00  0.027  0.000
 1659.00  0.026  0.000
 1660.00  0.024  0.000
 1661.00  0.023  0.000
 1662.00  0.022  0.000
 1663.00  0.020  0.000
 1664.00  0.019  0.000
 1665.00  0.018  0.000
 1666.00  0.017  0.000
 1667.00  0.017  0.000
 1668.00  0.016  0.000
 1669.00  0.015  0.000
 1670.00  0.014  0.000
 1671.00  0.014  0.000
 1672.00  0.013  0.000
 1673.00  0.013  0.000
 1674.00  0.012  0.000
 1675.00  0.012  0.000
 1676.00  0.011  0.000
 1677.00  0.011  0.000
 1678.00  0.010  0.000
 1679.00  0.010  0.000
 1680.00  0.010  0.000
 1681.00  0.009  0.000
 1682.00  0.009  0.000
 1683.00  0.009  0.000
 1684.00  0.008  0.000
 1685.00  0.008  0.000
 1686.00  0.008  0.000
 1687.00  0.007  0.000
 1688.00  0.007  0.000
 1689.00  0.007  0.000
 1690.00  0.007  0.000
 1691.00  0.007  0.000
 1692.00  0.006  0.000
 1693.00  0.006  0.000
 1694.00  0.006  0.000
 1695.00  0.006  0.000
 1696.00  0.006  0.000
 1697.00  0.006  0.000
 1698.00  0.005  0.000
 1699.00  0.005  0.000
 1700.00  0.005  0.000
 1701.00  0.005  0.000
 1702.00  0.005  0.000
 1703.00  0.005  0.000
 1704.00  0.005  0.000
 1705.00  0.005  0.000
 1706.00  0.004  0.000
 1707.00  0.004  0.000
 1708.00  0.004  0.000
 1709.00  0.004  0.000
 1710.00  0.004  0.000
 1711.00  0.004  0.000
 1712.00  0.004  0.000
 1713.00  0.004  0.000
 1714.00  0.004  0.000
 1715.00  0.004  0.000
 1716.00  0.004  0.000
 1717.00  0.003  0.000
 1718.00  0.003  0.000
 1719.00  0.003  0.000
 1720.00  0.003  0.000
 1721.00  0.003  0.000
 1722.00  0.003  0.000
 1723.00  0.003  0.000
 1724.00  0.003  0.000
 1725.00  0.003  0.000
 1726.00  0.003  0.000
 1727.00  0.003  0.000
 1728.00  0.003  0.000
 1729.00  0.003  0.000
 1730.00  0.003  0.000
 1731.00  0.003  0.000
 1732.00  0.003  0.000
 1733.00  0.003  0.000
 1734.00  0.002  0.000
 1735.00  0.002  0.000
 1736.00  0.002  0.000
 1737.00  0.002  0.000
 1738.00  0.002  0.000
 1739.00  0.002  0.000
 1740.00  0.002  0.000
 1741.00  0.002  0.000
 1742.00  0.002  0.000
 1743.00  0.002  0.000
 1744.00  0.002  0.000
 1745.00  0.002  0.000
 1746.00  0.002  0.000
 1747.00  0.002  0.000
 1748.00  0.002  0.000
 1749.00  0.002  0.000
 1750.00  0.002  0.000
 1751.00  0.002  0.000
 1752.00  0.002  0.000
 1753.00  0.002  0.000
 1754.00  0.002  0.000
 1755.00  0.002  0.000
 1756.00  0.002  0.000
 1757.00  0.002  0.000
 1758.00  0.002  0.000
 1759.00  0.002  0.000
 1760.00  0.002  0.000
 1761.00  0.002  0.000
 1762.00  0.002  0.000
 1763.00  0.002  0.000
 1764.00  0.002  0.000
 1765.00  0.002  0.000
 1766.00  0.002  0.000
 1767.00  0.002  0.000
 1768.00  0.002  0.000
 1769.00  0.001  0.000
 1770.00  0.001  0.000
 1771.00  0.001  0.000
 1772.00  0.001  0.000
 1773.00  0.001  0.000
 1774.00  0.001  0.000
 1775.00  0.001  0.000
 1776.00  0.001  0.000
 1777.00  0.001  0.000
 1778.00  0.001  0.000
 1779.00  0.001  0.000
 1780.00  0.001  0.000
 1781.00  0.001  0.000
 1782.00  0.001  0.000
 1783.00  0.001  0.000
 1784.00  0.001  0.000
 1785.00  0.001  0.000
 1786.00  0.001  0.000
 1787.00  0.001  0.000
 1788.00  0.001  0.000
 1789.00  0.001  0.000
 1790.00  0.001  0.000
 1791.00  0.001  0.000
 1792.00  0.001  0.000
 1793.00  0.001  0.000
 1794.00  0.001  0.000
 1795.00  0.001  0.000
 1796.00  0.001  0.000
 1797.00  0.001  0.000
 1798.00  0.001  0.000
 1799.00  0.001  0.000
 1800.00  0.001  0.000
 1801.00  0.001  0.000
 1802.00  0.001  0.000
 1803.00  0.001  0.000
 1804.00  0.001  0.000
 1805.00  0.001  0.000
 1806.00  0.001  0.000
 1807.00  0.001  0.000
 1808.00  0.001  0.000
 1809.00  0.001  0.000
 1810.00  0.001  0.000
 1811.00  0.001  0.000
 1812.00  0.001  0.000
 1813.00  0.001  0.000
 1814.00  0.001  0.000
 1815.00  0.001  0.000
 1816.00  0.001  0.000
 1817.00  0.001  0.000
 1818.00  0.001  0.000
 1819.00  0.001  0.000
 1820.00  0.001  0.000
 1821.00  0.001  0.000
 1822.00  0.001  0.000
 1823.00  0.001  0.000
 1824.00  0.001  0.000
 1825.00  0.001  0.000
 1826.00  0.001  0.000
 1827.00  0.001  0.000
 1828.00  0.001  0.000
 1829.00  0.001  0.000
 1830.00  0.001  0.000
 1831.00  0.001  0.000
 1832.00  0.001  0.000
 1833.00  0.001  0.000
 1834.00  0.001  0.000
 1835.00  0.001  0.000
 1836.00  0.001  0.000
 1837.00  0.001  0.000
 1838.00  0.001  0.000
 1839.00  0.001  0.000
 1840.00  0.001  0.000
 1841.00  0.001  0.000
 1842.00  0.001  0.000
 1843.00  0.001  0.000
 1844.00  0.001  0.000
 1845.00  0.001  0.000
 1846.00  0.001  0.000
 1847.00  0.001  0.000
 1848.00  0.001  0.000
 1849.00  0.001  0.000
 1850.00  0.001  0.000
 1851.00  0.001  0.000
 1852.00  0.001  0.000
 1853.00  0.001  0.000
 1854.00  0.001  0.000
 1855.00  0.001  0.000
 1856.00  0.001  0.000
 1857.00  0.001  0.000
 1858.00  0.001  0.000
 1859.00  0.001  0.000
 1860.00  0.001  0.000
 1861.00  0.001  0.000
 1862.00  0.001  0.000
 1863.00  0.001  0.000
 1864.00  0.001  0.000
 1865.00  0.001  0.000
 1866.00  0.001  0.000
 1867.00  0.001  0.000
 1868.00  0.001  0.000
 1869.00  0.001  0.000
 1870.00  0.001  0.000
 1871.00  0.001  0.000
 1872.00  0.001  0.000
 1873.00  0.001  0.000
 1874.00  0.001  0.000
 1875.00  0.001  0.000
 1876.00  0.001  0.000
 1877.00  0.001  0.000
 1878.00  0.001  0.000
 1879.00  0.001  0.000
 1880.00  0.001  0.000
 1881.00  0.001  0.000
 1882.00  0.001  0.000
 1883.00  0.001  0.000
 1884.00  0.001  0.000
 1885.00  0.001  0.000
 1886.00  0.001  0.000
 1887.00  0.001  0.000
 1888.00  0.001  0.000
 1889.00  0.001  0.000
 1890.00  0.001  0.000
 1891.00  0.001  0.000
 1892.00  0.001  0.000
 1893.00  0.001  0.000
 1894.00  0.001  0.000
 1895.00  0.001  0.000
 1896.00  0.001  0.000
 1897.00  0.001  0.000
 1898.00  0.001  0.000
 1899.00  0.000  0.000
 1900.00  0.000  0.000
 1901.00  0.000  0.000
 1902.00  0.000  0.000
 1903.00  0.000  0.000
 1904.00  0.000  0.000
 1905.00  0.000  0.000
 1906.00  0.000  0.000
 1907.00  0.000  0.000
 1908.00  0.000  0.000
 1909.00  0.000  0.000
 1910.00  0.000  0.000
 1911.00  0.000  0.000
 1912.00  0.000  0.000
 1913.00  0.000  0.000
 1914.00  0.000  0.000
 1915.00  0.000  0.000
 1916.00  0.000  0.000
 1917.00  0.000  0.000
 1918.00  0.000  0.000
 1919.00  0.000  0.000
 1920.00  0.000  0.000
 1921.00  0.000  0.000
 1922.00  0.000  0.000
 1923.00  0.000  0.000
 1924.00  0.000  0.000
 1925.00  0.000  0.000
 1926.00  0.000  0.000
 1927.00  0.000  0.000
 1928.00  0.000  0.000
 1929.00  0.000  0.000
 1930.00  0.000  0.000
 1931.00  0.000  0.000
 1932.00  0.000  0.000
 1933.00  0.000  0.000
 1934.00  0.000  0.000
 1935.00  0.000  0.000
 1936.00  0.000  0.000
 1937.00  0.000  0.000
 1938.00  0.000  0.000
 1939.00  0.000  0.000
 1940.00  0.000  0.000
 1941.00  0.000  0.000
 1942.00  0.000  0.000
 1943.00  0.000  0.000
 1944.00  0.000  0.000
 1945.00  0.000  0.000
 1946.00  0.000  0.000
 1947.00  0.000  0.000
 1948.00  0.000  0.000
 1949.00  0.000  0.000
 1950.00  0.000  0.000
 1951.00  0.000  0.000
 1952.00  0.000  0.000
 1953.00  0.000  0.000
 1954.00  0.000  0.000
 1955.00  0.000  0.000
 1956.00  0.000  0.000
 1957.00  0.000  0.000
 1958.00  0.000  0.000
 1959.00  0.000  0.000
 1960.00  0.000  0.000
 1961.00  0.000  0.000
 1962.00  0.000  0.000
 1963.00  0.000  0.000
 1964.00  0.000  0.000
 1965.00  0.000  0.000
 1966.00  0.000  0.000
 1967.00  0.000  0.000
 1968.00  0.000  0.000
 1969.00  0.000  0.000
 1970.00  0.000  0.000
 1971.00  0.000  0.000
 1972.00  0.000  0.000
 1973.00  0.000  0.000
 1974.00  0.000  0.000
 1975.00  0.000  0.000
 1976.00  0.000  0.000
 1977.00  0.000  0.000
 1978.00  0.000  0.000
 1979.00  0.000  0.000
 1980.00  0.000  0.000
 1981.00  0.000  0.000
 1982.00  0.000  0.000
 1983.00  0.000  0.000
 1984.00  0.000  0.000
 1985.00  0.000  0.000
 1986.00  0.000  0.000
 1987.00  0.000  0.000
 1988.00  0.000  0.000
 1989.00  0.000  0.000
 1990.00  0.000  0.000
 1991.00  0.000  0.000
 1992.00  0.000  0.000
 1993.00  0.000  0.000
 1994.00  0.000  0.000
 1995.00  0.000  0.000
 1996.00  0.000  0.000
 1997.00  0.000  0.000
 1998.00  0.000  0.000
 1999.00  0.000  0.000
 2000.00  0.000  0.000
 2001.00  0.000  0.000
 2002.00  0.000  0.000
 2003.00  0.000  0.000
 2004.00  0.000  0.000
 2005.00  0.000  0.000
 2006.00  0.000  0.000
 2007.00  0.000  0.000
 2008.00  0.000  0.000
 2009.00  0.000  0.000
 2010.00  0.000  0.000
 2011.00  0.000  0.000
 2012.00  0.000  0.000
 2013.00  0.000  0.000
 2014.00  0.000  0.000
 2015.00  0.000  0.000
 2016.00  0.000  0.000
 2017.00  0.000  0.000
 2018.00  0.000  0.000
 2019.00  0.000  0.000
 2020.00  0.000  0.000
 2021.00  0.000  0.000
 2022.00  0.000  0.000
 2023.00  0.000  0.000
 2024.00  0.000  0.000
 2025.00  0.000  0.000
 2026.00  0.000  0.000
 2027.00  0.000  0.000
 2028.00  0.000  0.000
 2029.00  0.000  0.000
 2030.00  0.000  0.000
 2031.00  0.000  0.000
 2032.00  0.000  0.000
 2033.00  0.000  0.000
 2034.00  0.000  0.000
 2035.00  0.000  0.000
 2036.00  0.000  0.000
 2037.00  0.000  0.000
 2038.00  0.000  0.000
 2039.00  0.000  0.000
 2040.00  0.000  0.000
 2041.00  0.000  0.000
 2042.00  0.000  0.000
 2043.00  0.000  0.000
 2044.00  0.000  0.000
 2045.00  0.000  0.000
 2046.00  0.000  0.000
 2047.00  0.000  0.000
 2048.00  0.000  0.000
 2049.00  0.000  0.000
 2050.00  0.000  0.000
 2051.00  0.000  0.000
 2052.00  0.000  0.000
 2053.00  0.000  0.000
 2054.00  0.000  0.000
 2055.00  0.000  0.000
 2056.00  0.000  0.000
 2057.00  0.000  0.000
 2058.00  0.000  0.000
 2059.00  0.000  0.000
 2060.00  0.000  0.000
 2061.00  0.000  0.000
 2062.00  0.000  0.000
 2063.00  0.000  0.000
 2064.00  0.000  0.000
 2065.00  0.000  0.000
 2066.00  0.000  0.000
 2067.00  0.000  0.000
 2068.00  0.000  0.000
 2069.00  0.000  0.000
 2070.00  0.000  0.000
 2071.00  0.000  0.000
 2072.00  0.000  0.000
 2073.00  0.000  0.000
 2074.00  0.000  0.000
 2075.00  0.000  0.000
 2076.00  0.000  0.000
 2077.00  0.000  0.000
 2078.00  0.000  0.000
 2079.00  0.000  0.000
 2080.00  0.000  0.000
 2081.00  0.000  0.000
 2082.00  0.000  0.000
 2083.00  0.000  0.000
 2084.00  0.000  0.000
 2085.00  0.000  0.000
 2086.00  0.000  0.000
 2087.00  0.000  0.000
 2088.00  0.000  0.000
 2089.00  0.000  0.000
 2090.00  0.000  0.000
 2091.00  0.000  0.000
 2092.00  0.000  0.000
 2093.00  0.000  0.000
 2094.00  0.000  0.000
 2095.00  0.000  0.000
 2096.00  0.000  0.000
 2097.00  0.000  0.000
 2098.00  0.000  0.000
 2099.00  0.000  0.000
 2100.00  0.000  0.000
 2101.00  0.000  0.000
 2102.00  0.000  0.000
 2103.00  0.000  0.000
 2104.00  0.000  0.000
 2105.00  0.000  0.000
 2106.00  0.000  0.000
 2107.00  0.000  0.000
 2108.00  0.000  0.000
 2109.00  0.000  0.000
 2110.00  0.000  0.000
 2111.00  0.000  0.000
 2112.00  0.000  0.000
 2113.00  0.000  0.000
 2114.00  0.000  0.000
 2115.00  0.000  0.000
 2116.00  0.000  0.000
 2117.00  0.000  0.000
 2118.00  0.000  0.000
 2119.00  0.000  0.000
 2120.00  0.000  0.000
 2121.00  0.000  0.000
 2122.00  0.000  0.000
 2123.00  0.000  0.000
 2124.00  0.000  0.000
 2125.00  0.000  0.000
 2126.00  0.000  0.000
 2127.00  0.000  0.000
 2128.00  0.000  0.000
 2129.00  0.000  0.000
 2130.00  0.000  0.000
 2131.00  0.000  0.000
 2132.00  0.000  0.000
 2133.00  0.000  0.000
 2134.00  0.000  0.000
 2135.00  0.000  0.000
 2136.00  0.000  0.000
 2137.00  0.000  0.000
 2138.00  0.000  0.000
 2139.00  0.000  0.000
 2140.00  0.000  0.000
 2141.00  0.000  0.000
 2142.00  0.000  0.000
 2143.00  0.000  0.000
 2144.00  0.000  0.000
 2145.00  0.000  0.000
 2146.00  0.000  0.000
 2147.00  0.000  0.000
 2148.00  0.000  0.000
 2149.00  0.000  0.000
 2150.00  0.000  0.000
 2151.00  0.000  0.000
 2152.00  0.000  0.000
 2153.00  0.000  0.000
 2154.00  0.000  0.000
 2155.00  0.000  0.000
 2156.00  0.000  0.000
 2157.00  0.000  0.000
 2158.00  0.000  0.000
 2159.00  0.000  0.000
 2160.00  0.000  0.000
 2161.00  0.000  0.000
 2162.00  0.000  0.000
 2163.00  0.000  0.000
 2164.00  0.000  0.000
 2165.00  0.000  0.000
 2166.00  0.000  0.000
 2167.00  0.000  0.000
 2168.00  0.000  0.000
 2169.00  0.000  0.000
 2170.00  0.000  0.000
 2171.00  0.000  0.000
 2172.00  0.000  0.000
 2173.00  0.000  0.000
 2174.00  0.000  0.000
 2175.00  0.000  0.000
 2176.00  0.000  0.000
 2177.00  0.000  0.000
 2178.00  0.000  0.000
 2179.00  0.000  0.000
 2180.00  0.000  0.000
 2181.00  0.000  0.000
 2182.00  0.000  0.000
 2183.00  0.000  0.000
 2184.00  0.000  0.000
 2185.00  0.000  0.000
 2186.00  0.000  0.000
 2187.00  0.000  0.000
 2188.00  0.000  0.000
 2189.00  0.000  0.000
 2190.00  0.000  0.000
 2191.00  0.000  0.000
 2192.00  0.000  0.000
 2193.00  0.000  0.000
 2194.00  0.000  0.000
 2195.00  0.000  0.000
 2196.00  0.000  0.000
 2197.00  0.000  0.000
 2198.00  0.000  0.000
 2199.00  0.000  0.000
 2200.00  0.000  0.000
 2201.00  0.000  0.000
 2202.00  0.000  0.000
 2203.00  0.000  0.000
 2204.00  0.000  0.000
 2205.00  0.000  0.000
 2206.00  0.000  0.000
 2207.00  0.000  0.000
 2208.00  0.000  0.000
 2209.00  0.000  0.000
 2210.00  0.000  0.000
 2211.00  0.000  0.000
 2212.00  0.000  0.000
 2213.00  0.000  0.000
 2214.00  0.000  0.000
 2215.00  0.000  0.000
 2216.00  0.000  0.000
 2217.00  0.000  0.000
 2218.00  0.000  0.000
 2219.00  0.000  0.000
 2220.00  0.000  0.000
 2221.00  0.000  0.000
 2222.00  0.000  0.000
 2223.00  0.000  0.000
 2224.00  0.000  0.000
 2225.00  0.000  0.000
 2226.00  0.000  0.000
 2227.00  0.000  0.000
 2228.00  0.000  0.000
 2229.00  0.000  0.000
 2230.00  0.000  0.000
 2231.00  0.000  0.000
 2232.00  0.000  0.000
 2233.00  0.000  0.000
 2234.00  0.000  0.000
 2235.00  0.000  0.000
 2236.00  0.000  0.000
 2237.00  0.000  0.000
 2238.00  0.000  0.000
 2239.00  0.000  0.000
 2240.00  0.000  0.000
 2241.00  0.000  0.000
 2242.00  0.000  0.000
 2243.00  0.000  0.000
 2244.00  0.000  0.000
 2245.00  0.000  0.000
 2246.00  0.000  0.000
 2247.00  0.000  0.000
 2248.00  0.000  0.000
 2249.00  0.000  0.000
 2250.00  0.000  0.000
 2251.00  0.000  0.000
 2252.00  0.000  0.000
 2253.00  0.000  0.000
 2254.00  0.000  0.000
 2255.00  0.000  0.000
 2256.00  0.000  0.000
 2257.00  0.000  0.000
 2258.00  0.000  0.000
 2259.00  0.000  0.000
 2260.00  0.000  0.000
 2261.00  0.000  0.000
 2262.00  0.000  0.000
 2263.00  0.000  0.000
 2264.00  0.000  0.000
 2265.00  0.000  0.000
 2266.00  0.000  0.000
 2267.00  0.000  0.000
 2268.00  0.000  0.000
 2269.00  0.000  0.000
 2270.00  0.000  0.000
 2271.00  0.000  0.000
 2272.00  0.000  0.000
 2273.00  0.000  0.000
 2274.00  0.000  0.000
 2275.00  0.000  0.000
 2276.00  0.000  0.000
 2277.00  0.000  0.000
 2278.00  0.000  0.000
 2279.00  0.000  0.000
 2280.00  0.000  0.000
 2281.00  0.000  0.000
 2282.00  0.000  0.000
 2283.00  0.000  0.000
 2284.00  0.000  0.000
 2285.00  0.000  0.000
 2286.00  0.000  0.000
 2287.00  0.000  0.000
 2288.00  0.000  0.000
 2289.00  0.000  0.000
 2290.00  0.000  0.000
 2291.00  0.000  0.000
 2292.00  0.000  0.000
 2293.00  0.000  0.000
 2294.00  0.000  0.000
 2295.00  0.000  0.000
 2296.00  0.000  0.000
 2297.00  0.000  0.000
 2298.00  0.000  0.000
 2299.00  0.000  0.000
 2300.00  0.000  0.000
 2301.00  0.000  0.000
 2302.00  0.000  0.000
 2303.00  0.000  0.000
 2304.00  0.000  0.000
 2305.00  0.000  0.000
 2306.00  0.000  0.000
 2307.00  0.000  0.000
 2308.00  0.000  0.000
 2309.00  0.000  0.000
 2310.00  0.000  0.000
 2311.00  0.000  0.000
 2312.00  0.000  0.000
 2313.00  0.000  0.000
 2314.00  0.000  0.000
 2315.00  0.000  0.000
 2316.00  0.000  0.000
 2317.00  0.000  0.000
 2318.00  0.000  0.000
 2319.00  0.000  0.000
 2320.00  0.000  0.000
 2321.00  0.000  0.000
 2322.00  0.000  0.000
 2323.00  0.000  0.000
 2324.00  0.000  0.000
 2325.00  0.000  0.000
 2326.00  0.000  0.000
 2327.00  0.000  0.000
 2328.00  0.000  0.000
 2329.00  0.000  0.000
 2330.00  0.000  0.000
 2331.00  0.000  0.000
 2332.00  0.000  0.000
 2333.00  0.000  0.000
 2334.00  0.000  0.000
 2335.00  0.000  0.000
 2336.00  0.000  0.000
 2337.00  0.000  0.000
 2338.00  0.000  0.000
 2339.00  0.000  0.000
 2340.00  0.000  0.000
 2341.00  0.000  0.000
 2342.00  0.000  0.000
 2343.00  0.000  0.000
 2344.00  0.000  0.000
 2345.00  0.000  0.000
 2346.00  0.000  0.000
 2347.00  0.000  0.000
 2348.00  0.000  0.000
 2349.00  0.000  0.000
 2350.00  0.000  0.000
 2351.00  0.000  0.000
 2352.00  0.000  0.000
 2353.00  0.000  0.000
 2354.00  0.000  0.000
 2355.00  0.000  0.000
 2356.00  0.000  0.000
 2357.00  0.000  0.000
 2358.00  0.000  0.000
 2359.00  0.000  0.000
 2360.00  0.000  0.000
 2361.00  0.000  0.000
 2362.00  0.000  0.000
 2363.00  0.000  0.000
 2364.00  0.000  0.000
 2365.00  0.000  0.000
 2366.00  0.000  0.000
 2367.00  0.000  0.000
 2368.00  0.000  0.000
 2369.00  0.000  0.000
 2370.00  0.000  0.000
 2371.00  0.000  0.000
 2372.00  0.000  0.000
 2373.00  0.000  0.000
 2374.00  0.000  0.000
 2375.00  0.000  0.000
 2376.00  0.000  0.000
 2377.00  0.000  0.000
 2378.00  0.000  0.000
 2379.00  0.000  0.000
 2380.00  0.000  0.000
 2381.00  0.000  0.000
 2382.00  0.000  0.000
 2383.00  0.000  0.000
 2384.00  0.000  0.000
 2385.00  0.000  0.000
 2386.00  0.000  0.000
 2387.00  0.000  0.000
 2388.00  0.000  0.000
 2389.00  0.000  0.000
 2390.00  0.000  0.000
 2391.00  0.000  0.000
 2392.00  0.000  0.000
 2393.00  0.000  0.000
 2394.00  0.000  0.000
 2395.00  0.000  0.000
 2396.00  0.000  0.000
 2397.00  0.000  0.000
 2398.00  0.000  0.000
 2399.00  0.000  0.000
 2400.00  0.000  0.000
 2401.00  0.000  0.000
 2402.00  0.000  0.000
 2403.00  0.000  0.000
 2404.00  0.000  0.000
 2405.00  0.000  0.000
 2406.00  0.000  0.000
 2407.00  0.000  0.000
 2408.00  0.000  0.000
 2409.00  0.000  0.000
 2410.00  0.000  0.000
 2411.00  0.000  0.000
 2412.00  0.000  0.000
 2413.00  0.000  0.000
 2414.00  0.000  0.000
 2415.00  0.000  0.000
 2416.00  0.000  0.000
 2417.00  0.000  0.000
 2418.00  0.000  0.000
 2419.00  0.000  0.000
 2420.00  0.000  0.000
 2421.00  0.000  0.000
 2422.00  0.000  0.000
 2423.00  0.000  0.000
 2424.00  0.000  0.000
 2425.00  0.000  0.000
 2426.00  0.000  0.000
 2427.00  0.000  0.000
 2428.00  0.000  0.000
 2429.00  0.000  0.000
 2430.00  0.000  0.000
 2431.00  0.000  0.000
 2432.00  0.000  0.000
 2433.00  0.000  0.000
 2434.00  0.000  0.000
 2435.00  0.000  0.000
 2436.00  0.000  0.000
 2437.00  0.000  0.000
 2438.00  0.000  0.000
 2439.00  0.000  0.000
 2440.00  0.000  0.000
 2441.00  0.000  0.000
 2442.00  0.000  0.000
 2443.00  0.000  0.000
 2444.00  0.000  0.000
 2445.00  0.000  0.000
 2446.00  0.000  0.000
 2447.00  0.000  0.000
 2448.00  0.000  0.000
 2449.00  0.000  0.000
 2450.00  0.000  0.000
 2451.00  0.000  0.000
 2452.00  0.000  0.000
 2453.00  0.000  0.000
 2454.00  0.000  0.000
 2455.00  0.000  0.000
 2456.00  0.000  0.000
 2457.00  0.000  0.000
 2458.00  0.000  0.000
 2459.00  0.000  0.000
 2460.00  0.000  0.000
 2461.00  0.000  0.000
 2462.00  0.000  0.000
 2463.00  0.000  0.000
 2464.00  0.000  0.000
 2465.00  0.000  0.000
 2466.00  0.000  0.000
 2467.00  0.000  0.000
 2468.00  0.000  0.000
 2469.00  0.000  0.000
 2470.00  0.000  0.000
 2471.00  0.000  0.000
 2472.00  0.000  0.000
 2473.00  0.000  0.000
 2474.00  0.000  0.000
 2475.00  0.000  0.000
 2476.00  0.000  0.000
 2477.00  0.000  0.000
 2478.00  0.000  0.000
 2479.00  0.000  0.000
 2480.00  0.000  0.000
 2481.00  0.000  0.000
 2482.00  0.000  0.000
 2483.00  0.000  0.000
 2484.00  0.000  0.000
 2485.00  0.000  0.000
 2486.00  0.000  0.000
 2487.00  0.000  0.000
 2488.00  0.000  0.000
 2489.00  0.000  0.000
 2490.00  0.000  0.000
 2491.00  0.000  0.000
 2492.00  0.000  0.000
 2493.00  0.000  0.000
 2494.00  0.000  0.000
 2495.00  0.000  0.000
 2496.00  0.000  0.000
 2497.00  0.000  0.000
 2498.00  0.000  0.000
 2499.00  0.000  0.000
 2500.00  0.000  0.000
 2501.00  0.000  0.000
 2502.00  0.000  0.000
 2503.00  0.000  0.000
 2504.00  0.000  0.000
 2505.00  0.000  0.000
 2506.00  0.000  0.000
 2507.00  0.000  0.000
 2508.00  0.000  0.000
 2509.00  0.000  0.000
 2510.00  0.000  0.000
 2511.00  0.000  0.000
 2512.00  0.000  0.000
 2513.00  0.000  0.000
 2514.00  0.000  0.000
 2515.00  0.000  0.000
 2516.00  0.000  0.000
 2517.00  0.000  0.000
 2518.00  0.000  0.000
 2519.00  0.000  0.000
 2520.00  0.000  0.000
 2521.00  0.000  0.000
 2522.00  0.000  0.000
 2523.00  0.000  0.000
 2524.00  0.000  0.000
 2525.00  0.000  0.000
 2526.00  0.000  0.000
 2527.00  0.000  0.000
 2528.00  0.000  0.000
 2529.00  0.000  0.000
 2530.00  0.000  0.000
 2531.00  0.000  0.000
 2532.00  0.000  0.000
 2533.00  0.000  0.000
 2534.00  0.000  0.000
 2535.00  0.000  0.000
 2536.00  0.000  0.000
 2537.00  0.000  0.000
 2538.00  0.000  0.000
 2539.00  0.000  0.000
 2540.00  0.000  0.000
 2541.00  0.000  0.000
 2542.00  0.000  0.000
 2543.00  0.000  0.000
 2544.00  0.000  0.000
 2545.00  0.000  0.000
 2546.00  0.000  0.000
 2547.00  0.000  0.000
 2548.00  0.000  0.000
 2549.00  0.000  0.000
 2550.00  0.000  0.000
 2551.00  0.000  0.000
 2552.00  0.000  0.000
 2553.00  0.000  0.000
 2554.00  0.000  0.000
 2555.00  0.000  0.000
 2556.00  0.000  0.000
 2557.00  0.000  0.000
 2558.00  0.000  0.000
 2559.00  0.000  0.000
 2560.00  0.000  0.000
 2561.00  0.000  0.000
 2562.00  0.000  0.000
 2563.00  0.000  0.000
 2564.00  0.000  0.000
 2565.00  0.000  0.000
 2566.00  0.000  0.000
 2567.00  0.000  0.000
 2568.00  0.000  0.000
 2569.00  0.000  0.000
 2570.00  0.000  0.000
 2571.00  0.000  0.000
 2572.00  0.000  0.000
 2573.00  0.000  0.000
 2574.00  0.000  0.000
 2575.00  0.000  0.000
 2576.00  0.000  0.000
 2577.00  0.000  0.000
 2578.00  0.000  0.000
 2579.00  0.000  0.000
 2580.00  0.000  0.000
 2581.00  0.000  0.000
 2582.00  0.000  0.000
 2583.00  0.000  0.000
 2584.00  0.000  0.000
 2585.00  0.000  0.000
 2586.00  0.000  0.000
 2587.00  0.000  0.000
 2588.00  0.000  0.000
 2589.00  0.000  0.000
 2590.00  0.000  0.000
 2591.00  0.000  0.000
 2592.00  0.000  0.000
 2593.00  0.000  0.000
 2594.00  0.000  0.000
 2595.00  0.000  0.000
 2596.00  0.000  0.000
 2597.00  0.000  0.000
 2598.00  0.000  0.000
 2599.00  0.000  0.000
 2600.00  0.000  0.000
 2601.00  0.000  0.000
 2602.00  0.000  0.000
 2603.00  0.000  0.000
 2604.00  0.000  0.000
 2605.00  0.000  0.000
 2606.00  0.000  0.000
 2607.00  0.000  0.000
 2608.00  0.000  0.000
 2609.00  0.000  0.000
 2610.00  0.000  0.000
 2611.00  0.000  0.000
 2612.00  0.000  0.000
 2613.00  0.000  0.000
 2614.00  0.000  0.000
 2615.00  0.000  0.000
 2616.00  0.000  0.000
 2617.00  0.000  0.000
 2618.00  0.000  0.000
 2619.00  0.000  0.000
 2620.00  0.000  0.000
 2621.00  0.000  0.000
 2622.00  0.000  0.000
 2623.00  0.000  0.000
 2624.00  0.000  0.000
 2625.00  0.000  0.000
 2626.00  0.000  0.000
 2627.00  0.000  0.000
 2628.00  0.000  0.000
 2629.00  0.000  0.000
 2630.00  0.000  0.000
 2631.00  0.000  0.000
 2632.00  0.000  0.000
 2633.00  0.000  0.000
 2634.00  0.000  0.000
 2635.00  0.000  0.000
 2636.00  0.000  0.000
 2637.00  0.000  0.000
 2638.00  0.000  0.000
 2639.00  0.000  0.000
 2640.00  0.000  0.000
 2641.00  0.000  0.000
 2642.00  0.000  0.000
 2643.00  0.000  0.000
 2644.00  0.000  0.000
 2645.00  0.000  0.000
 2646.00  0.000  0.000
 2647.00  0.000  0.000
 2648.00  0.000  0.000
 2649.00  0.000  0.000
 2650.00  0.000  0.000
 2651.00  0.000  0.000
 2652.00  0.000  0.000
 2653.00  0.000  0.000
 2654.00  0.000  0.000
 2655.00  0.000  0.000
 2656.00  0.000  0.000
 2657.00  0.000  0.000
 2658.00  0.000  0.000
 2659.00  0.000  0.000
 2660.00  0.000  0.000
 2661.00  0.000  0.000
 2662.00  0.000  0.000
 2663.00  0.000  0.000
 2664.00  0.000  0.000
 2665.00  0.000  0.000
 2666.00  0.000  0.000
 2667.00  0.000  0.000
 2668.00  0.000  0.000
 2669.00  0.000  0.000
 2670.00  0.000  0.000
 2671.00  0.000  0.000
 2672.00  0.000  0.000
 2673.00  0.000  0.000
 2674.00  0.000  0.000
 2675.00  0.000  0.000
 2676.00  0.000  0.000
 2677.00  0.000  0.000
 2678.00  0.000  0.000
 2679.00  0.000  0.000
 2680.00  0.000  0.000
 2681.00  0.000  0.000
 2682.00  0.000  0.000
 2683.00  0.000  0.000
 2684.00  0.000  0.000
 2685.00  0.000  0.000
 2686.00  0.000  0.000
 2687.00  0.000  0.000
 2688.00  0.000  0.000
 2689.00  0.000  0.000
 2690.00  0.000  0.000
 2691.00  0.000  0.000
 2692.00  0.000  0.000
 2693.00  0.000  0.000
 2694.00  0.000  0.000
 2695.00  0.000  0.000
 2696.00  0.000  0.000
 2697.00  0.000  0.000
 2698.00  0.000  0.000
 2699.00  0.000  0.000
 2700.00  0.000  0.000
 2701.00  0.000  0.000
 2702.00  0.000  0.000
 2703.00  0.000  0.000
 2704.00  0.000  0.000
 2705.00  0.000  0.000
 2706.00  0.000  0.000
 2707.00  0.000  0.000
 2708.00  0.000  0.000
 2709.00  0.000  0.000
 2710.00  0.000  0.000
 2711.00  0.000  0.000
 2712.00  0.000  0.000
 2713.00  0.000  0.000
 2714.00  0.000  0.000
 2715.00  0.000  0.000
 2716.00  0.000  0.000
 2717.00  0.000  0.000
 2718.00  0.000  0.000
 2719.00  0.000  0.000
 2720.00  0.000  0.000
 2721.00  0.000  0.001
 2722.00  0.000  0.001
 2723.00  0.000  0.001
 2724.00  0.000  0.001
 2725.00  0.000  0.001
 2726.00  0.000  0.001
 2727.00  0.000  0.001
 2728.00  0.000  0.001
 2729.00  0.000  0.001
 2730.00  0.000  0.001
 2731.00  0.000  0.001
 2732.00  0.000  0.001
 2733.00  0.000  0.001
 2734.00  0.000  0.001
 2735.00  0.000  0.001
 2736.00  0.000  0.001
 2737.00  0.000  0.001
 2738.00  0.000  0.001
 2739.00  0.000  0.001
 2740.00  0.000  0.001
 2741.00  0.000  0.001
 2742.00  0.000  0.001
 2743.00  0.000  0.001
 2744.00  0.000  0.001
 2745.00  0.000  0.001
 2746.00  0.000  0.001
 2747.00  0.000  0.001
 2748.00  0.000  0.001
 2749.00  0.000  0.001
 2750.00  0.000  0.001
 2751.00  0.000  0.001
 2752.00  0.000  0.001
 2753.00  0.000  0.001
 2754.00  0.000  0.001
 2755.00  0.000  0.001
 2756.00  0.000  0.001
 2757.00  0.000  0.001
 2758.00  0.000  0.001
 2759.00  0.000  0.001
 2760.00  0.000  0.001
 2761.00  0.000  0.001
 2762.00  0.000  0.001
 2763.00  0.000  0.001
 2764.00  0.000  0.001
 2765.00  0.000  0.001
 2766.00  0.000  0.001
 2767.00  0.000  0.001
 2768.00  0.000  0.001
 2769.00  0.000  0.001
 2770.00  0.000  0.001
 2771.00  0.000  0.001
 2772.00  0.000  0.001
 2773.00  0.000  0.001
 2774.00  0.000  0.001
 2775.00  0.000  0.001
 2776.00  0.000  0.001
 2777.00  0.000  0.001
 2778.00  0.000  0.001
 2779.00  0.000  0.001
 2780.00  0.000  0.001
 2781.00  0.000  0.001
 2782.00  0.000  0.001
 2783.00  0.000  0.001
 2784.00  0.000  0.001
 2785.00  0.000  0.001
 2786.00  0.000  0.001
 2787.00  0.000  0.001
 2788.00  0.000  0.001
 2789.00  0.000  0.001
 2790.00  0.000  0.001
 2791.00  0.000  0.001
 2792.00  0.000  0.001
 2793.00  0.000  0.001
 2794.00  0.000  0.001
 2795.00  0.000  0.001
 2796.00  0.000  0.001
 2797.00  0.000  0.001
 2798.00  0.000  0.001
 2799.00  0.000  0.001
 2800.00  0.000  0.001
 2801.00  0.000  0.001
 2802.00  0.000  0.001
 2803.00  0.000  0.001
 2804.00  0.000  0.001
 2805.00  0.000  0.001
 2806.00  0.000  0.001
 2807.00  0.000  0.001
 2808.00  0.000  0.001
 2809.00  0.000  0.001
 2810.00  0.000  0.001
 2811.00  0.000  0.001
 2812.00  0.000  0.001
 2813.00  0.000  0.001
 2814.00  0.000  0.001
 2815.00  0.000  0.001
 2816.00  0.000  0.001
 2817.00  0.000  0.001
 2818.00  0.000  0.002
 2819.00  0.000  0.002
 2820.00  0.000  0.002
 2821.00  0.000  0.002
 2822.00  0.000  0.002
 2823.00  0.000  0.002
 2824.00  0.000  0.002
 2825.00  0.000  0.002
 2826.00  0.001  0.002
 2827.00  0.001  0.002
 2828.00  0.001  0.002
 2829.00  0.001  0.002
 2830.00  0.001  0.002
 2831.00  0.001  0.002
 2832.00  0.001  0.002
 2833.00  0.001  0.002
 2834.00  0.001  0.002
 2835.00  0.001  0.002
 2836.00  0.001  0.002
 2837.00  0.001  0.002
 2838.00  0.001  0.002
 2839.00  0.001  0.002
 2840.00  0.001  0.002
 2841.00  0.001  0.002
 2842.00  0.001  0.002
 2843.00  0.001  0.002
 2844.00  0.001  0.002
 2845.00  0.001  0.002
 2846.00  0.001  0.002
 2847.00  0.001  0.003
 2848.00  0.001  0.003
 2849.00  0.001  0.003
 2850.00  0.001  0.003
 2851.00  0.001  0.003
 2852.00  0.001  0.003
 2853.00  0.001  0.003
 2854.00  0.001  0.003
 2855.00  0.001  0.003
 2856.00  0.001  0.003
 2857.00  0.001  0.003
 2858.00  0.001  0.003
 2859.00  0.001  0.003
 2860.00  0.001  0.003
 2861.00  0.001  0.003
 2862.00  0.001  0.003
 2863.00  0.001  0.004
 2864.00  0.001  0.004
 2865.00  0.001  0.004
 2866.00  0.001  0.004
 2867.00  0.001  0.004
 2868.00  0.001  0.004
 2869.00  0.001  0.004
 2870.00  0.001  0.004
 2871.00  0.001  0.004
 2872.00  0.001  0.004
 2873.00  0.001  0.005
 2874.00  0.001  0.005
 2875.00  0.001  0.005
 2876.00  0.001  0.005
 2877.00  0.001  0.005
 2878.00  0.001  0.005
 2879.00  0.001  0.005
 2880.00  0.002  0.005
 2881.00  0.002  0.006
 2882.00  0.002  0.006
 2883.00  0.002  0.006
 2884.00  0.002  0.006
 2885.00  0.002  0.006
 2886.00  0.002  0.007
 2887.00  0.002  0.007
 2888.00  0.002  0.007
 2889.00  0.002  0.007
 2890.00  0.002  0.008
 2891.00  0.002  0.008
 2892.00  0.002  0.008
 2893.00  0.002  0.008
 2894.00  0.002  0.009
 2895.00  0.002  0.009
 2896.00  0.003  0.009
 2897.00  0.003  0.010
 2898.00  0.003  0.010
 2899.00  0.003  0.010
 2900.00  0.003  0.011
 2901.00  0.003  0.011
 2902.00  0.003  0.012
 2903.00  0.003  0.012
 2904.00  0.004  0.013
 2905.00  0.004  0.014
 2906.00  0.004  0.014
 2907.00  0.004  0.015
 2908.00  0.004  0.016
 2909.00  0.005  0.016
 2910.00  0.005  0.017
 2911.00  0.005  0.018
 2912.00  0.005  0.019
 2913.00  0.006  0.020
 2914.00  0.006  0.021
 2915.00  0.006  0.023
 2916.00  0.007  0.024
 2917.00  0.007  0.026
 2918.00  0.008  0.027
 2919.00  0.008  0.029
 2920.00  0.009  0.031
 2921.00  0.010  0.033
 2922.00  0.010  0.036
 2923.00  0.011  0.039
 2924.00  0.012  0.042
 2925.00  0.013  0.045
 2926.00  0.014  0.049
 2927.00  0.016  0.054
 2928.00  0.017  0.059
 2929.00  0.019  0.065
 2930.00  0.021  0.071
 2931.00  0.024  0.079
 2932.00  0.027  0.088
 2933.00  0.030  0.099
 2934.00  0.035  0.112
 2935.00  0.040  0.127
 2936.00  0.046  0.146
 2937.00  0.054  0.168
 2938.00  0.064  0.196
 2939.00  0.076  0.230
 2940.00  0.091  0.274
 2941.00  0.111  0.328
 2942.00  0.135  0.397
 2943.00  0.164  0.483
 2944.00  0.197  0.589
 2945.00  0.229  0.710
 2946.00  0.253  0.836
 2947.00  0.261  0.943
 2948.00  0.251  1.000
 2949.00  0.227  0.989
 2950.00  0.196  0.916
 2951.00  0.164  0.803
 2952.00  0.135  0.679
 2953.00  0.111  0.562
 2954.00  0.092  0.462
 2955.00  0.076  0.380
 2956.00  0.064  0.315
 2957.00  0.054  0.263
 2958.00  0.046  0.222
 2959.00  0.040  0.189
 2960.00  0.035  0.163
 2961.00  0.031  0.141
 2962.00  0.027  0.123
 2963.00  0.024  0.109
 2964.00  0.021  0.096
 2965.00  0.019  0.086
 2966.00  0.017  0.077
 2967.00  0.016  0.070
 2968.00  0.014  0.063
 2969.00  0.013  0.057
 2970.00  0.012  0.053
 2971.00  0.011  0.048
 2972.00  0.010  0.044
 2973.00  0.010  0.041
 2974.00  0.009  0.038
 2975.00  0.008  0.035
 2976.00  0.008  0.033
 2977.00  0.007  0.031
 2978.00  0.007  0.029
 2979.00  0.006  0.027
 2980.00  0.006  0.025
 2981.00  0.006  0.024
 2982.00  0.005  0.022
 2983.00  0.005  0.021
 2984.00  0.005  0.020
 2985.00  0.005  0.019
 2986.00  0.004  0.018
 2987.00  0.004  0.017
 2988.00  0.004  0.016
 2989.00  0.004  0.015
 2990.00  0.004  0.015
 2991.00  0.003  0.014
 2992.00  0.003  0.013
 2993.00  0.003  0.013
 2994.00  0.003  0.012
 2995.00  0.003  0.012
 2996.00  0.003  0.011
 2997.00  0.003  0.011
 2998.00  0.003  0.010
 2999.00  0.002  0.010
 3000.00  0.002  0.010
 3001.00  0.002  0.009
 3002.00  0.002  0.009
 3003.00  0.002  0.009
 3004.00  0.002  0.008
 3005.00  0.002  0.008
 3006.00  0.002  0.008
 3007.00  0.002  0.007
 3008.00  0.002  0.007
 3009.00  0.002  0.007
 3010.00  0.002  0.007
 3011.00  0.002  0.007
 3012.00  0.002  0.006
 3013.00  0.002  0.006
 3014.00  0.002  0.006
 3015.00  0.001  0.006
 3016.00  0.001  0.006
 3017.00  0.001  0.005
 3018.00  0.001  0.005
 3019.00  0.001  0.005
 3020.00  0.001  0.005
 3021.00  0.001  0.005
 3022.00  0.001  0.005
 3023.00  0.001  0.005
 3024.00  0.001  0.004
 3025.00  0.001  0.004
 3026.00  0.001  0.004
 3027.00  0.001  0.004
 3028.00  0.001  0.004
 3029.00  0.001  0.004
 3030.00  0.001  0.004
 3031.00  0.001  0.004
 3032.00  0.001  0.004
 3033.00  0.001  0.004
 3034.00  0.001  0.004
 3035.00  0.001  0.003
 3036.00  0.001  0.003
 3037.00  0.001  0.003
 3038.00  0.001  0.003
 3039.00  0.001  0.003
 3040.00  0.001  0.003
 3041.00  0.001  0.003
 3042.00  0.001  0.003
 3043.00  0.001  0.003
 3044.00  0.001  0.003
 3045.00  0.001  0.003
 3046.00  0.001  0.003
 3047.00  0.001  0.003
 3048.00  0.001  0.003
 3049.00  0.001  0.003
 3050.00  0.001  0.002
 3051.00  0.001  0.002
 3052.00  0.001  0.002
 3053.00  0.001  0.002
 3054.00  0.001  0.002
 3055.00  0.001  0.002
 3056.00  0.001  0.002
 3057.00  0.001  0.002
 3058.00  0.001  0.002
 3059.00  0.001  0.002
 3060.00  0.001  0.002
 3061.00  0.001  0.002
 3062.00  0.001  0.002
 3063.00  0.001  0.002
 3064.00  0.001  0.002
 3065.00  0.001  0.002
 3066.00  0.001  0.002
 3067.00  0.000  0.002
 3068.00  0.000  0.002
 3069.00  0.000  0.002
 3070.00  0.000  0.002
 3071.00  0.000  0.002
 3072.00  0.000  0.002
 3073.00  0.000  0.002
 3074.00  0.000  0.002
 3075.00  0.000  0.002
 3076.00  0.000  0.002
 3077.00  0.000  0.002
 3078.00  0.000  0.002
 3079.00  0.000  0.002
 3080.00  0.000  0.001
 3081.00  0.000  0.001
 3082.00  0.000  0.001
 3083.00  0.000  0.001
 3084.00  0.000  0.001
 3085.00  0.000  0.001
 3086.00  0.000  0.001
 3087.00  0.000  0.001
 3088.00  0.000  0.001
 3089.00  0.000  0.001
 3090.00  0.000  0.001
 3091.00  0.000  0.001
 3092.00  0.000  0.001
 3093.00  0.000  0.001
 3094.00  0.000  0.001
 3095.00  0.000  0.001
 3096.00  0.000  0.001
 3097.00  0.000  0.001
 3098.00  0.000  0.001
 3099.00  0.000  0.001
 3100.00  0.000  0.001
