# v / cm^-1, IR Int./ AU, Raman Int. / AU
 -100.00  0.000  0.000
  -99.00  0.000  0.000
  -98.00  0.000  0.000
  -97.00  0.000  0.000
  -96.00  0.000  0.000
  -95.00  0.000  0.000
  -94.00  0.000  0.000
  -93.00  0.000  0.000
  -92.00  0.000  0.000
  -91.00  0.000  0.000
  -90.00  0.000  0.000
  -89.00  0.000  0.000
  -88.00  0.000  0.000
  -87.00  0.000  0.000
  -86.00  0.000  0.000
  -85.00  0.000  0.000
  -84.00  0.000  0.000
  -83.00  0.000  0.000
  -82.00  0.000  0.000
  -81.00  0.000  0.000
  -80.00  0.000  0.000
  -79.00  0.000  0.000
  -78.00  0.000  0.000
  -77.00  0.000  0.000
  -76.00  0.000  0.000
  -75.00  0.000  0.000
  -74.00  0.000  0.000
  -73.00  0.000  0.000
  -72.00  0.000  0.000
  -71.00  0.000  0.000
  -70.00  0.000  0.000
  -69.00  0.000  0.000
  -68.00  0.000  0.000
  -67.00  0.000  0.000
  -66.00  0.000  0.000
  -65.00  0.000  0.000
  -64.00  0.000  0.000
  -63.00  0.000  0.000
  -62.00  0.000  0.000
  -61.00  0.000  0.000
  -60.00  0.000  0.000
  -59.00  0.000  0.000
  -58.00  0.000  0.000
  -57.00  0.000  0.000
  -56.00  0.000  0.000
  -55.00  0.000  0.000
  -54.00  0.000  0.000
  -53.00  0.000  0.000
  -52.00  0.000  0.000
  -51.00  0.000  0.000
  -50.00  0.000  0.000
  -49.00  0.000  0.000
  -48.00  0.000  0.000
  -47.00  0.000  0.000
  -46.00  0.000  0.000
  -45.00  0.000  0.000
  -44.00  0.000  0.000
  -43.00  0.000  0.000
  -42.00  0.000  0.000
  -41.00  0.000  0.000
  -40.00  0.000  0.000
  -39.00  0.000  0.000
  -38.00  0.000  0.000
  -37.00  0.000  0.000
  -36.00  0.000  0.000
  -35.00  0.000  0.000
  -34.00  0.000  0.000
  -33.00  0.000  0.000
  -32.00  0.000  0.000
  -31.00  0.000  0.000
  -30.00  0.000  0.000
  -29.00  0.000  0.000
  -28.00  0.000  0.000
  -27.00  0.000  0.000
  -26.00  0.000  0.000
  -25.00  0.000  0.000
  -24.00  0.000  0.000
  -23.00  0.000  0.000
  -22.00  0.000  0.000
  -21.00  0.000  0.000
  -20.00  0.000  0.000
  -19.00  0.000  0.000
  -18.00  0.000  0.000
  -17.00  0.000  0.000
  -16.00  0.000  0.000
  -15.00  0.000  0.000
  -14.00  0.000  0.000
  -13.00  0.000  0.000
  -12.00  0.000  0.000
  -11.00  0.000  0.000
  -10.00  0.000  0.000
   -9.00  0.000  0.000
   -8.00  0.000  0.000
   -7.00  0.000  0.000
   -6.00  0.000  0.000
   -5.00  0.000  0.000
   -4.00  0.000  0.000
   -3.00  0.000  0.000
   -2.00  0.000  0.000
   -1.00  0.000  0.000
    0.00  0.000  0.000
    1.00  0.000  0.000
    2.00  0.000  0.000
    3.00  0.000  0.000
    4.00  0.000  0.000
    5.00  0.000  0.000
    6.00  0.000  0.000
    7.00  0.000  0.000
    8.00  0.000  0.000
    9.00  0.000  0.000
   10.00  0.000  0.000
   11.00  0.000  0.000
   12.00  0.000  0.000
   13.00  0.000  0.000
   14.00  0.000  0.000
   15.00  0.000  0.000
   16.00  0.000  0.000
   17.00  0.000  0.000
   18.00  0.000  0.000
   19.00  0.000  0.000
   20.00  0.000  0.000
   21.00  0.000  0.000
   22.00  0.000  0.000
   23.00  0.000  0.000
   24.00  0.000  0.000
   25.00  0.000  0.000
   26.00  0.000  0.000
   27.00  0.000  0.000
   28.00  0.000  0.000
   29.00  0.000  0.000
   30.00  0.000  0.000
   31.00  0.000  0.000
   32.00  0.000  0.000
   33.00  0.001  0.000
   34.00  0.001  0.000
   35.00  0.001  0.000
   36.00  0.001  0.000
   37.00  0.001  0.000
   38.00  0.001  0.000
   39.00  0.001  0.000
   40.00  0.001  0.000
   41.00  0.001  0.000
   42.00  0.001  0.000
   43.00  0.001  0.000
   44.00  0.001  0.000
   45.00  0.001  0.000
   46.00  0.001  0.000
   47.00  0.001  0.000
   48.00  0.001  0.000
   49.00  0.001  0.000
   50.00  0.001  0.000
   51.00  0.001  0.000
   52.00  0.001  0.000
   53.00  0.001  0.000
   54.00  0.002  0.000
   55.00  0.002  0.000
   56.00  0.002  0.000
   57.00  0.002  0.000
   58.00  0.001  0.000
   59.00  0.001  0.000
   60.00  0.001  0.000
   61.00  0.001  0.000
   62.00  0.001  0.000
   63.00  0.001  0.000
   64.00  0.001  0.000
   65.00  0.001  0.000
   66.00  0.001  0.000
   67.00  0.001  0.000
   68.00  0.001  0.000
   69.00  0.001  0.000
   70.00  0.001  0.000
   71.00  0.001  0.000
   72.00  0.001  0.000
   73.00  0.001  0.000
   74.00  0.001  0.000
   75.00  0.001  0.000
   76.00  0.001  0.000
   77.00  0.001  0.000
   78.00  0.001  0.000
   79.00  0.001  0.000
   80.00  0.001  0.000
   81.00  0.001  0.000
   82.00  0.001  0.000
   83.00  0.001  0.000
   84.00  0.001  0.000
   85.00  0.001  0.000
   86.00  0.001  0.000
   87.00  0.001  0.000
   88.00  0.001  0.000
   89.00  0.001  0.000
   90.00  0.001  0.000
   91.00  0.001  0.000
   92.00  0.001  0.000
   93.00  0.001  0.000
   94.00  0.001  0.000
   95.00  0.001  0.000
   96.00  0.001  0.000
   97.00  0.002  0.000
   98.00  0.002  0.000
   99.00  0.002  0.000
  100.00  0.002  0.000
  101.00  0.002  0.000
  102.00  0.002  0.000
  103.00  0.002  0.000
  104.00  0.002  0.000
  105.00  0.002  0.000
  106.00  0.002  0.000
  107.00  0.002  0.000
  108.00  0.002  0.000
  109.00  0.002  0.000
  110.00  0.002  0.000
  111.00  0.002  0.000
  112.00  0.003  0.000
  113.00  0.003  0.000
  114.00  0.003  0.000
  115.00  0.003  0.000
  116.00  0.003  0.000
  117.00  0.003  0.000
  118.00  0.002  0.000
  119.00  0.002  0.000
  120.00  0.002  0.000
  121.00  0.002  0.000
  122.00  0.002  0.000
  123.00  0.002  0.000
  124.00  0.002  0.000
  125.00  0.002  0.000
  126.00  0.003  0.000
  127.00  0.003  0.000
  128.00  0.003  0.000
  129.00  0.002  0.000
  130.00  0.002  0.000
  131.00  0.002  0.000
  132.00  0.002  0.000
  133.00  0.002  0.000
  134.00  0.002  0.000
  135.00  0.002  0.000
  136.00  0.002  0.000
  137.00  0.001  0.000
  138.00  0.001  0.000
  139.00  0.001  0.000
  140.00  0.001  0.000
  141.00  0.001  0.000
  142.00  0.001  0.001
  143.00  0.001  0.001
  144.00  0.001  0.001
  145.00  0.001  0.001
  146.00  0.001  0.001
  147.00  0.001  0.001
  148.00  0.001  0.001
  149.00  0.001  0.001
  150.00  0.001  0.001
  151.00  0.001  0.001
  152.00  0.001  0.001
  153.00  0.001  0.001
  154.00  0.001  0.001
  155.00  0.001  0.001
  156.00  0.002  0.001
  157.00  0.002  0.001
  158.00  0.002  0.001
  159.00  0.002  0.001
  160.00  0.002  0.001
  161.00  0.002  0.001
  162.00  0.002  0.001
  163.00  0.002  0.000
  164.00  0.002  0.000
  165.00  0.002  0.000
  166.00  0.002  0.000
  167.00  0.002  0.000
  168.00  0.002  0.000
  169.00  0.002  0.001
  170.00  0.002  0.001
  171.00  0.003  0.001
  172.00  0.003  0.001
  173.00  0.003  0.001
  174.00  0.003  0.001
  175.00  0.003  0.001
  176.00  0.004  0.001
  177.00  0.004  0.001
  178.00  0.004  0.001
  179.00  0.004  0.001
  180.00  0.005  0.001
  181.00  0.005  0.001
  182.00  0.006  0.001
  183.00  0.007  0.001
  184.00  0.008  0.001
  185.00  0.008  0.001
  186.00  0.009  0.001
  187.00  0.010  0.001
  188.00  0.010  0.001
  189.00  0.010  0.001
  190.00  0.010  0.001
  191.00  0.010  0.002
  192.00  0.010  0.002
  193.00  0.010  0.002
  194.00  0.011  0.002
  195.00  0.012  0.003
  196.00  0.013  0.003
  197.00  0.015  0.003
  198.00  0.017  0.004
  199.00  0.020  0.005
  200.00  0.023  0.006
  201.00  0.025  0.007
  202.00  0.027  0.008
  203.00  0.027  0.010
  204.00  0.025  0.012
  205.00  0.023  0.014
  206.00  0.021  0.015
  207.00  0.019  0.015
  208.00  0.018  0.014
  209.00  0.017  0.012
  210.00  0.017  0.010
  211.00  0.018  0.009
  212.00  0.019  0.007
  213.00  0.021  0.006
  214.00  0.023  0.005
  215.00  0.027  0.004
  216.00  0.031  0.004
  217.00  0.036  0.003
  218.00  0.042  0.003
  219.00  0.047  0.002
  220.00  0.049  0.002
  221.00  0.048  0.002
  222.00  0.044  0.002
  223.00  0.038  0.001
  224.00  0.033  0.001
  225.00  0.028  0.001
  226.00  0.024  0.001
  227.00  0.021  0.001
  228.00  0.019  0.001
  229.00  0.017  0.001
  230.00  0.016  0.001
  231.00  0.016  0.001
  232.00  0.016  0.001
  233.00  0.016  0.001
  234.00  0.016  0.001
  235.00  0.016  0.001
  236.00  0.015  0.001
  237.00  0.014  0.001
  238.00  0.013  0.001
  239.00  0.011  0.001
  240.00  0.010  0.001
  241.00  0.010  0.000
  242.00  0.009  0.000
  243.00  0.008  0.000
  244.00  0.008  0.000
  245.00  0.007  0.000
  246.00  0.007  0.000
  247.00  0.007  0.000
  248.00  0.006  0.000
  249.00  0.006  0.000
  250.00  0.006  0.000
  251.00  0.006  0.000
  252.00  0.006  0.000
  253.00  0.006  0.000
  254.00  0.006  0.000
  255.00  0.006  0.000
  256.00  0.006  0.000
  257.00  0.006  0.000
  258.00  0.006  0.000
  259.00  0.007  0.000
  260.00  0.007  0.000
  261.00  0.007  0.000
  262.00  0.008  0.000
  263.00  0.008  0.000
  264.00  0.009  0.000
  265.00  0.010  0.000
  266.00  0.011  0.000
  267.00  0.012  0.000
  268.00  0.014  0.000
  269.00  0.016  0.000
  270.00  0.018  0.000
  271.00  0.022  0.000
  272.00  0.026  0.000
  273.00  0.030  0.000
  274.00  0.036  0.000
  275.00  0.041  0.000
  276.00  0.044  0.000
  277.00  0.044  0.000
  278.00  0.042  0.000
  279.00  0.038  0.000
  280.00  0.033  0.000
  281.00  0.028  0.000
  282.00  0.024  0.000
  283.00  0.021  0.000
  284.00  0.019  0.000
  285.00  0.017  0.000
  286.00  0.016  0.000
  287.00  0.016  0.000
  288.00  0.015  0.000
  289.00  0.015  0.000
  290.00  0.016  0.000
  291.00  0.016  0.000
  292.00  0.017  0.000
  293.00  0.018  0.000
  294.00  0.020  0.000
  295.00  0.022  0.000
  296.00  0.025  0.000
  297.00  0.028  0.000
  298.00  0.032  0.000
  299.00  0.037  0.000
  300.00  0.043  0.000
  301.00  0.049  0.000
  302.00  0.055  0.000
  303.00  0.060  0.000
  304.00  0.061  0.000
  305.00  0.060  0.000
  306.00  0.056  0.000
  307.00  0.050  0.000
  308.00  0.044  0.000
  309.00  0.039  0.000
  310.00  0.035  0.000
  311.00  0.033  0.000
  312.00  0.031  0.001
  313.00  0.030  0.001
  314.00  0.030  0.001
  315.00  0.031  0.001
  316.00  0.032  0.001
  317.00  0.035  0.001
  318.00  0.038  0.001
  319.00  0.042  0.001
  320.00  0.048  0.001
  321.00  0.055  0.001
  322.00  0.064  0.001
  323.00  0.073  0.002
  324.00  0.082  0.002
  325.00  0.087  0.002
  326.00  0.086  0.003
  327.00  0.079  0.003
  328.00  0.069  0.003
  329.00  0.058  0.003
  330.00  0.049  0.003
  331.00  0.041  0.003
  332.00  0.034  0.003
  333.00  0.029  0.002
  334.00  0.025  0.002
  335.00  0.022  0.002
  336.00  0.019  0.002
  337.00  0.017  0.002
  338.00  0.015  0.002
  339.00  0.014  0.001
  340.00  0.013  0.001
  341.00  0.012  0.001
  342.00  0.011  0.001
  343.00  0.010  0.001
  344.00  0.010  0.001
  345.00  0.009  0.001
  346.00  0.009  0.001
  347.00  0.008  0.001
  348.00  0.008  0.001
  349.00  0.008  0.001
  350.00  0.008  0.001
  351.00  0.007  0.001
  352.00  0.007  0.001
  353.00  0.007  0.001
  354.00  0.007  0.001
  355.00  0.007  0.001
  356.00  0.007  0.000
  357.00  0.007  0.000
  358.00  0.007  0.000
  359.00  0.007  0.000
  360.00  0.007  0.000
  361.00  0.007  0.000
  362.00  0.007  0.000
  363.00  0.007  0.000
  364.00  0.007  0.000
  365.00  0.008  0.000
  366.00  0.008  0.000
  367.00  0.008  0.000
  368.00  0.008  0.000
  369.00  0.008  0.000
  370.00  0.009  0.000
  371.00  0.009  0.000
  372.00  0.009  0.000
  373.00  0.010  0.000
  374.00  0.010  0.000
  375.00  0.011  0.001
  376.00  0.011  0.001
  377.00  0.012  0.001
  378.00  0.013  0.001
  379.00  0.014  0.001
  380.00  0.015  0.001
  381.00  0.016  0.001
  382.00  0.017  0.001
  383.00  0.018  0.001
  384.00  0.020  0.001
  385.00  0.022  0.001
  386.00  0.024  0.001
  387.00  0.027  0.001
  388.00  0.030  0.001
  389.00  0.034  0.001
  390.00  0.039  0.001
  391.00  0.045  0.001
  392.00  0.052  0.001
  393.00  0.061  0.001
  394.00  0.072  0.001
  395.00  0.086  0.001
  396.00  0.104  0.001
  397.00  0.126  0.001
  398.00  0.152  0.001
  399.00  0.181  0.001
  400.00  0.206  0.001
  401.00  0.221  0.001
  402.00  0.221  0.001
  403.00  0.207  0.002
  404.00  0.184  0.002
  405.00  0.158  0.002
  406.00  0.135  0.002
  407.00  0.114  0.003
  408.00  0.097  0.003
  409.00  0.082  0.003
  410.00  0.070  0.003
  411.00  0.061  0.003
  412.00  0.053  0.003
  413.00  0.048  0.002
  414.00  0.043  0.002
  415.00  0.040  0.002
  416.00  0.037  0.002
  417.00  0.036  0.002
  418.00  0.035  0.002
  419.00  0.036  0.002
  420.00  0.037  0.002
  421.00  0.039  0.003
  422.00  0.043  0.003
  423.00  0.047  0.003
  424.00  0.053  0.003
  425.00  0.058  0.004
  426.00  0.062  0.004
  427.00  0.063  0.005
  428.00  0.060  0.006
  429.00  0.054  0.007
  430.00  0.047  0.008
  431.00  0.041  0.009
  432.00  0.036  0.010
  433.00  0.031  0.012
  434.00  0.028  0.013
  435.00  0.025  0.013
  436.00  0.022  0.012
  437.00  0.021  0.011
  438.00  0.019  0.009
  439.00  0.018  0.008
  440.00  0.017  0.007
  441.00  0.016  0.005
  442.00  0.016  0.005
  443.00  0.015  0.004
  444.00  0.016  0.003
  445.00  0.016  0.003
  446.00  0.017  0.003
  447.00  0.017  0.002
  448.00  0.018  0.002
  449.00  0.018  0.002
  450.00  0.018  0.002
  451.00  0.017  0.002
  452.00  0.016  0.002
  453.00  0.015  0.002
  454.00  0.014  0.001
  455.00  0.014  0.001
  456.00  0.013  0.001
  457.00  0.013  0.001
  458.00  0.012  0.001
  459.00  0.012  0.001
  460.00  0.013  0.001
  461.00  0.013  0.001
  462.00  0.013  0.001
  463.00  0.014  0.001
  464.00  0.014  0.001
  465.00  0.015  0.001
  466.00  0.016  0.001
  467.00  0.017  0.001
  468.00  0.019  0.001
  469.00  0.020  0.001
  470.00  0.022  0.001
  471.00  0.024  0.001
  472.00  0.026  0.001
  473.00  0.028  0.001
  474.00  0.030  0.001
  475.00  0.034  0.001
  476.00  0.038  0.001
  477.00  0.044  0.001
  478.00  0.052  0.001
  479.00  0.061  0.001
  480.00  0.071  0.001
  481.00  0.081  0.001
  482.00  0.090  0.001
  483.00  0.094  0.001
  484.00  0.092  0.001
  485.00  0.086  0.001
  486.00  0.078  0.001
  487.00  0.070  0.001
  488.00  0.062  0.001
  489.00  0.055  0.001
  490.00  0.049  0.001
  491.00  0.045  0.001
  492.00  0.042  0.001
  493.00  0.039  0.001
  494.00  0.037  0.001
  495.00  0.035  0.001
  496.00  0.034  0.001
  497.00  0.031  0.001
  498.00  0.029  0.001
  499.00  0.027  0.001
  500.00  0.025  0.001
  501.00  0.023  0.001
  502.00  0.021  0.001
  503.00  0.020  0.001
  504.00  0.018  0.001
  505.00  0.017  0.001
  506.00  0.016  0.001
  507.00  0.015  0.001
  508.00  0.015  0.001
  509.00  0.014  0.001
  510.00  0.014  0.001
  511.00  0.014  0.001
  512.00  0.013  0.001
  513.00  0.013  0.001
  514.00  0.013  0.002
  515.00  0.013  0.002
  516.00  0.012  0.002
  517.00  0.012  0.002
  518.00  0.012  0.002
  519.00  0.012  0.002
  520.00  0.012  0.002
  521.00  0.012  0.002
  522.00  0.012  0.002
  523.00  0.013  0.002
  524.00  0.013  0.002
  525.00  0.013  0.002
  526.00  0.014  0.002
  527.00  0.014  0.002
  528.00  0.015  0.002
  529.00  0.016  0.002
  530.00  0.016  0.002
  531.00  0.017  0.002
  532.00  0.018  0.002
  533.00  0.019  0.002
  534.00  0.020  0.002
  535.00  0.022  0.002
  536.00  0.023  0.002
  537.00  0.025  0.002
  538.00  0.028  0.002
  539.00  0.030  0.003
  540.00  0.033  0.003
  541.00  0.036  0.003
  542.00  0.041  0.003
  543.00  0.046  0.003
  544.00  0.052  0.003
  545.00  0.060  0.003
  546.00  0.070  0.003
  547.00  0.084  0.003
  548.00  0.100  0.003
  549.00  0.120  0.003
  550.00  0.143  0.003
  551.00  0.167  0.004
  552.00  0.185  0.004
  553.00  0.193  0.004
  554.00  0.188  0.004
  555.00  0.171  0.004
  556.00  0.148  0.004
  557.00  0.126  0.004
  558.00  0.107  0.004
  559.00  0.092  0.005
  560.00  0.080  0.005
  561.00  0.072  0.005
  562.00  0.066  0.005
  563.00  0.061  0.006
  564.00  0.058  0.006
  565.00  0.055  0.006
  566.00  0.051  0.006
  567.00  0.047  0.007
  568.00  0.043  0.007
  569.00  0.040  0.007
  570.00  0.037  0.008
  571.00  0.035  0.009
  572.00  0.033  0.009
  573.00  0.032  0.010
  574.00  0.031  0.010
  575.00  0.031  0.011
  576.00  0.031  0.012
  577.00  0.031  0.012
  578.00  0.031  0.013
  579.00  0.031  0.013
  580.00  0.032  0.014
  581.00  0.032  0.014
  582.00  0.033  0.015
  583.00  0.034  0.016
  584.00  0.035  0.017
  585.00  0.037  0.019
  586.00  0.039  0.020
  587.00  0.041  0.022
  588.00  0.044  0.024
  589.00  0.047  0.026
  590.00  0.051  0.029
  591.00  0.056  0.032
  592.00  0.062  0.036
  593.00  0.069  0.040
  594.00  0.076  0.045
  595.00  0.086  0.052
  596.00  0.098  0.059
  597.00  0.112  0.069
  598.00  0.129  0.081
  599.00  0.148  0.096
  600.00  0.165  0.114
  601.00  0.177  0.138
  602.00  0.179  0.168
  603.00  0.174  0.204
  604.00  0.163  0.247
  605.00  0.153  0.293
  606.00  0.144  0.333
  607.00  0.139  0.355
  608.00  0.138  0.350
  609.00  0.141  0.321
  610.00  0.147  0.278
  611.00  0.156  0.233
  612.00  0.170  0.192
  613.00  0.189  0.158
  614.00  0.213  0.130
  615.00  0.244  0.109
  616.00  0.283  0.092
  617.00  0.331  0.078
  618.00  0.390  0.068
  619.00  0.460  0.059
  620.00  0.545  0.053
  621.00  0.643  0.047
  622.00  0.751  0.043
  623.00  0.861  0.039
  624.00  0.952  0.037
  625.00  1.000  0.035
  626.00  0.985  0.034
  627.00  0.908  0.034
  628.00  0.793  0.033
  629.00  0.669  0.033
  630.00  0.554  0.031
  631.00  0.457  0.029
  632.00  0.378  0.026
  633.00  0.315  0.024
  634.00  0.265  0.022
  635.00  0.226  0.020
  636.00  0.194  0.018
  637.00  0.169  0.016
  638.00  0.148  0.015
  639.00  0.131  0.014
  640.00  0.117  0.013
  641.00  0.105  0.013
  642.00  0.096  0.012
  643.00  0.087  0.012
  644.00  0.080  0.011
  645.00  0.074  0.011
  646.00  0.069  0.011
  647.00  0.065  0.010
  648.00  0.061  0.010
  649.00  0.058  0.010
  650.00  0.056  0.010
  651.00  0.054  0.009
  652.00  0.052  0.009
  653.00  0.051  0.009
  654.00  0.051  0.009
  655.00  0.051  0.009
  656.00  0.052  0.009
  657.00  0.053  0.009
  658.00  0.056  0.009
  659.00  0.059  0.009
  660.00  0.064  0.009
  661.00  0.069  0.010
  662.00  0.074  0.010
  663.00  0.077  0.010
  664.00  0.078  0.010
  665.00  0.077  0.010
  666.00  0.074  0.010
  667.00  0.072  0.011
  668.00  0.071  0.011
  669.00  0.071  0.011
  670.00  0.074  0.012
  671.00  0.079  0.012
  672.00  0.087  0.013
  673.00  0.097  0.013
  674.00  0.110  0.014
  675.00  0.123  0.014
  676.00  0.134  0.015
  677.00  0.138  0.016
  678.00  0.134  0.017
  679.00  0.123  0.017
  680.00  0.108  0.018
  681.00  0.094  0.020
  682.00  0.082  0.021
  683.00  0.072  0.022
  684.00  0.065  0.024
  685.00  0.059  0.026
  686.00  0.055  0.028
  687.00  0.052  0.030
  688.00  0.050  0.033
  689.00  0.048  0.036
  690.00  0.048  0.039
  691.00  0.048  0.043
  692.00  0.049  0.048
  693.00  0.050  0.053
  694.00  0.052  0.059
  695.00  0.055  0.067
  696.00  0.059  0.077
  697.00  0.064  0.088
  698.00  0.071  0.102
  699.00  0.080  0.119
  700.00  0.091  0.141
  701.00  0.105  0.168
  702.00  0.124  0.203
  703.00  0.147  0.246
  704.00  0.175  0.299
  705.00  0.206  0.362
  706.00  0.238  0.431
  707.00  0.263  0.493
  708.00  0.274  0.533
  709.00  0.266  0.536
  710.00  0.243  0.500
  711.00  0.214  0.439
  712.00  0.184  0.370
  713.00  0.159  0.306
  714.00  0.139  0.251
  715.00  0.125  0.206
  716.00  0.115  0.171
  717.00  0.108  0.143
  718.00  0.103  0.121
  719.00  0.097  0.104
  720.00  0.090  0.090
  721.00  0.084  0.078
  722.00  0.077  0.069
  723.00  0.072  0.061
  724.00  0.068  0.055
  725.00  0.063  0.049
  726.00  0.059  0.045
  727.00  0.054  0.041
  728.00  0.050  0.038
  729.00  0.046  0.035
  730.00  0.043  0.033
  731.00  0.040  0.031
  732.00  0.038  0.030
  733.00  0.037  0.029
  734.00  0.036  0.028
  735.00  0.035  0.028
  736.00  0.035  0.028
  737.00  0.035  0.029
  738.00  0.035  0.030
  739.00  0.035  0.031
  740.00  0.036  0.034
  741.00  0.037  0.037
  742.00  0.039  0.041
  743.00  0.041  0.047
  744.00  0.043  0.053
  745.00  0.045  0.058
  746.00  0.047  0.062
  747.00  0.049  0.061
  748.00  0.051  0.057
  749.00  0.052  0.051
  750.00  0.054  0.043
  751.00  0.057  0.037
  752.00  0.060  0.031
  753.00  0.064  0.027
  754.00  0.070  0.023
  755.00  0.076  0.020
  756.00  0.084  0.018
  757.00  0.093  0.016
  758.00  0.105  0.015
  759.00  0.120  0.013
  760.00  0.138  0.012
  761.00  0.160  0.011
  762.00  0.189  0.011
  763.00  0.224  0.010
  764.00  0.267  0.009
  765.00  0.318  0.009
  766.00  0.375  0.009
  767.00  0.432  0.008
  768.00  0.480  0.008
  769.00  0.508  0.008
  770.00  0.514  0.007
  771.00  0.506  0.007
  772.00  0.495  0.007
  773.00  0.491  0.006
  774.00  0.491  0.006
  775.00  0.487  0.006
  776.00  0.467  0.006
  777.00  0.427  0.006
  778.00  0.374  0.006
  779.00  0.318  0.006
  780.00  0.267  0.006
  781.00  0.224  0.006
  782.00  0.188  0.006
  783.00  0.160  0.006
  784.00  0.137  0.006
  785.00  0.119  0.006
  786.00  0.105  0.006
  787.00  0.093  0.007
  788.00  0.083  0.007
  789.00  0.075  0.008
  790.00  0.069  0.009
  791.00  0.063  0.011
  792.00  0.059  0.012
  793.00  0.055  0.014
  794.00  0.052  0.015
  795.00  0.050  0.015
  796.00  0.048  0.015
  797.00  0.047  0.014
  798.00  0.046  0.012
  799.00  0.045  0.010
  800.00  0.046  0.009
  801.00  0.046  0.008
  802.00  0.047  0.007
  803.00  0.049  0.006
  804.00  0.050  0.005
  805.00  0.050  0.005
  806.00  0.049  0.004
  807.00  0.048  0.004
  808.00  0.046  0.004
  809.00  0.044  0.003
  810.00  0.042  0.003
  811.00  0.041  0.003
  812.00  0.039  0.003
  813.00  0.038  0.003
  814.00  0.037  0.003
  815.00  0.036  0.003
  816.00  0.035  0.002
  817.00  0.035  0.002
  818.00  0.034  0.002
  819.00  0.035  0.002
  820.00  0.035  0.002
  821.00  0.036  0.002
  822.00  0.036  0.002
  823.00  0.038  0.002
  824.00  0.039  0.002
  825.00  0.041  0.002
  826.00  0.043  0.002
  827.00  0.045  0.002
  828.00  0.048  0.002
  829.00  0.052  0.002
  830.00  0.057  0.002
  831.00  0.062  0.002
  832.00  0.069  0.002
  833.00  0.078  0.002
  834.00  0.088  0.002
  835.00  0.099  0.002
  836.00  0.112  0.002
  837.00  0.123  0.002
  838.00  0.131  0.002
  839.00  0.135  0.002
  840.00  0.135  0.002
  841.00  0.133  0.002
  842.00  0.131  0.002
  843.00  0.131  0.002
  844.00  0.135  0.002
  845.00  0.142  0.002
  846.00  0.153  0.001
  847.00  0.169  0.001
  848.00  0.190  0.001
  849.00  0.218  0.001
  850.00  0.253  0.001
  851.00  0.295  0.001
  852.00  0.341  0.001
  853.00  0.384  0.001
  854.00  0.414  0.001
  855.00  0.426  0.001
  856.00  0.420  0.001
  857.00  0.406  0.001
  858.00  0.396  0.001
  859.00  0.397  0.001
  860.00  0.413  0.001
  861.00  0.446  0.001
  862.00  0.498  0.001
  863.00  0.569  0.001
  864.00  0.652  0.001
  865.00  0.736  0.001
  866.00  0.798  0.001
  867.00  0.814  0.001
  868.00  0.778  0.001
  869.00  0.707  0.001
  870.00  0.625  0.001
  871.00  0.551  0.001
  872.00  0.494  0.001
  873.00  0.456  0.001
  874.00  0.434  0.001
  875.00  0.423  0.001
  876.00  0.411  0.001
  877.00  0.392  0.001
  878.00  0.361  0.001
  879.00  0.321  0.001
  880.00  0.279  0.001
  881.00  0.241  0.001
  882.00  0.209  0.002
  883.00  0.184  0.002
  884.00  0.164  0.002
  885.00  0.149  0.002
  886.00  0.138  0.002
  887.00  0.131  0.002
  888.00  0.128  0.002
  889.00  0.128  0.002
  890.00  0.132  0.003
  891.00  0.139  0.003
  892.00  0.150  0.004
  893.00  0.163  0.004
  894.00  0.175  0.004
  895.00  0.182  0.005
  896.00  0.180  0.005
  897.00  0.167  0.005
  898.00  0.149  0.005
  899.00  0.129  0.005
  900.00  0.110  0.005
  901.00  0.094  0.004
  902.00  0.081  0.003
  903.00  0.071  0.003
  904.00  0.062  0.002
  905.00  0.056  0.002
  906.00  0.050  0.002
  907.00  0.045  0.002
  908.00  0.041  0.002
  909.00  0.038  0.001
  910.00  0.035  0.001
  911.00  0.033  0.001
  912.00  0.031  0.001
  913.00  0.029  0.001
  914.00  0.028  0.001
  915.00  0.027  0.001
  916.00  0.026  0.001
  917.00  0.025  0.001
  918.00  0.025  0.001
  919.00  0.024  0.001
  920.00  0.025  0.001
  921.00  0.025  0.001
  922.00  0.026  0.001
  923.00  0.027  0.001
  924.00  0.027  0.001
  925.00  0.028  0.001
  926.00  0.028  0.001
  927.00  0.027  0.001
  928.00  0.025  0.001
  929.00  0.023  0.001
  930.00  0.021  0.001
  931.00  0.020  0.001
  932.00  0.018  0.001
  933.00  0.017  0.001
  934.00  0.015  0.001
  935.00  0.014  0.001
  936.00  0.014  0.001
  937.00  0.013  0.001
  938.00  0.012  0.001
  939.00  0.012  0.001
  940.00  0.011  0.001
  941.00  0.011  0.001
  942.00  0.011  0.001
  943.00  0.010  0.001
  944.00  0.010  0.001
  945.00  0.010  0.001
  946.00  0.010  0.001
  947.00  0.009  0.001
  948.00  0.009  0.001
  949.00  0.009  0.001
  950.00  0.009  0.001
  951.00  0.009  0.001
  952.00  0.009  0.001
  953.00  0.009  0.001
  954.00  0.009  0.001
  955.00  0.009  0.001
  956.00  0.009  0.001
  957.00  0.010  0.001
  958.00  0.010  0.001
  959.00  0.010  0.001
  960.00  0.011  0.001
  961.00  0.012  0.001
  962.00  0.013  0.001
  963.00  0.015  0.001
  964.00  0.016  0.001
  965.00  0.018  0.001
  966.00  0.020  0.001
  967.00  0.022  0.001
  968.00  0.022  0.001
  969.00  0.021  0.001
  970.00  0.020  0.001
  971.00  0.018  0.001
  972.00  0.016  0.001
  973.00  0.014  0.001
  974.00  0.012  0.001
  975.00  0.011  0.001
  976.00  0.010  0.002
  977.00  0.009  0.002
  978.00  0.008  0.002
  979.00  0.007  0.002
  980.00  0.007  0.002
  981.00  0.007  0.002
  982.00  0.006  0.003
  983.00  0.006  0.003
  984.00  0.006  0.003
  985.00  0.005  0.004
  986.00  0.005  0.004
  987.00  0.005  0.005
  988.00  0.005  0.006
  989.00  0.005  0.007
  990.00  0.005  0.008
  991.00  0.005  0.010
  992.00  0.004  0.012
  993.00  0.004  0.013
  994.00  0.004  0.015
  995.00  0.004  0.016
  996.00  0.004  0.018
  997.00  0.004  0.018
  998.00  0.004  0.019
  999.00  0.004  0.018
 1000.00  0.004  0.016
 1001.00  0.004  0.014
 1002.00  0.004  0.012
 1003.00  0.004  0.010
 1004.00  0.004  0.008
 1005.00  0.003  0.007
 1006.00  0.003  0.006
 1007.00  0.003  0.005
 1008.00  0.003  0.004
 1009.00  0.003  0.004
 1010.00  0.003  0.003
 1011.00  0.003  0.003
 1012.00  0.003  0.002
 1013.00  0.003  0.002
 1014.00  0.003  0.002
 1015.00  0.003  0.002
 1016.00  0.003  0.002
 1017.00  0.003  0.002
 1018.00  0.003  0.001
 1019.00  0.003  0.001
 1020.00  0.003  0.001
 1021.00  0.003  0.001
 1022.00  0.003  0.001
 1023.00  0.003  0.001
 1024.00  0.003  0.001
 1025.00  0.003  0.001
 1026.00  0.003  0.001
 1027.00  0.003  0.001
 1028.00  0.003  0.001
 1029.00  0.003  0.001
 1030.00  0.003  0.001
 1031.00  0.003  0.001
 1032.00  0.003  0.001
 1033.00  0.003  0.001
 1034.00  0.003  0.001
 1035.00  0.003  0.001
 1036.00  0.003  0.001
 1037.00  0.003  0.001
 1038.00  0.003  0.001
 1039.00  0.003  0.001
 1040.00  0.003  0.001
 1041.00  0.003  0.000
 1042.00  0.003  0.000
 1043.00  0.002  0.000
 1044.00  0.002  0.000
 1045.00  0.002  0.000
 1046.00  0.002  0.000
 1047.00  0.002  0.000
 1048.00  0.002  0.000
 1049.00  0.002  0.000
 1050.00  0.002  0.000
 1051.00  0.002  0.000
 1052.00  0.002  0.000
 1053.00  0.002  0.000
 1054.00  0.002  0.000
 1055.00  0.002  0.000
 1056.00  0.002  0.000
 1057.00  0.002  0.000
 1058.00  0.002  0.000
 1059.00  0.002  0.000
 1060.00  0.002  0.000
 1061.00  0.002  0.000
 1062.00  0.002  0.000
 1063.00  0.002  0.000
 1064.00  0.002  0.000
 1065.00  0.002  0.000
 1066.00  0.002  0.000
 1067.00  0.002  0.000
 1068.00  0.002  0.000
 1069.00  0.002  0.000
 1070.00  0.002  0.000
 1071.00  0.002  0.000
 1072.00  0.002  0.000
 1073.00  0.002  0.000
 1074.00  0.002  0.000
 1075.00  0.002  0.000
 1076.00  0.002  0.000
 1077.00  0.002  0.000
 1078.00  0.002  0.000
 1079.00  0.002  0.000
 1080.00  0.002  0.000
 1081.00  0.002  0.000
 1082.00  0.002  0.000
 1083.00  0.002  0.000
 1084.00  0.002  0.000
 1085.00  0.002  0.000
 1086.00  0.002  0.000
 1087.00  0.002  0.000
 1088.00  0.002  0.000
 1089.00  0.003  0.000
 1090.00  0.003  0.000
 1091.00  0.003  0.000
 1092.00  0.003  0.000
 1093.00  0.003  0.000
 1094.00  0.003  0.000
 1095.00  0.003  0.000
 1096.00  0.003  0.000
 1097.00  0.003  0.000
 1098.00  0.003  0.000
 1099.00  0.003  0.000
 1100.00  0.003  0.000
 1101.00  0.003  0.000
 1102.00  0.003  0.000
 1103.00  0.003  0.000
 1104.00  0.003  0.000
 1105.00  0.003  0.000
 1106.00  0.003  0.000
 1107.00  0.003  0.000
 1108.00  0.003  0.000
 1109.00  0.003  0.000
 1110.00  0.003  0.000
 1111.00  0.003  0.000
 1112.00  0.003  0.000
 1113.00  0.003  0.000
 1114.00  0.003  0.000
 1115.00  0.003  0.000
 1116.00  0.003  0.000
 1117.00  0.004  0.000
 1118.00  0.004  0.000
 1119.00  0.004  0.000
 1120.00  0.004  0.000
 1121.00  0.004  0.000
 1122.00  0.004  0.000
 1123.00  0.004  0.000
 1124.00  0.004  0.000
 1125.00  0.004  0.000
 1126.00  0.004  0.000
 1127.00  0.005  0.000
 1128.00  0.005  0.000
 1129.00  0.005  0.000
 1130.00  0.005  0.000
 1131.00  0.005  0.000
 1132.00  0.005  0.000
 1133.00  0.006  0.000
 1134.00  0.006  0.000
 1135.00  0.006  0.000
 1136.00  0.006  0.000
 1137.00  0.007  0.000
 1138.00  0.007  0.000
 1139.00  0.007  0.000
 1140.00  0.008  0.000
 1141.00  0.008  0.000
 1142.00  0.008  0.000
 1143.00  0.009  0.000
 1144.00  0.009  0.000
 1145.00  0.010  0.000
 1146.00  0.011  0.000
 1147.00  0.012  0.000
 1148.00  0.013  0.000
 1149.00  0.014  0.000
 1150.00  0.015  0.000
 1151.00  0.016  0.000
 1152.00  0.018  0.000
 1153.00  0.020  0.000
 1154.00  0.022  0.000
 1155.00  0.025  0.000
 1156.00  0.029  0.000
 1157.00  0.033  0.000
 1158.00  0.039  0.000
 1159.00  0.046  0.000
 1160.00  0.054  0.000
 1161.00  0.064  0.000
 1162.00  0.076  0.000
 1163.00  0.087  0.000
 1164.00  0.095  0.000
 1165.00  0.099  0.000
 1166.00  0.097  0.000
 1167.00  0.090  0.000
 1168.00  0.083  0.000
 1169.00  0.076  0.000
 1170.00  0.072  0.000
 1171.00  0.070  0.000
 1172.00  0.070  0.000
 1173.00  0.073  0.000
 1174.00  0.079  0.000
 1175.00  0.088  0.000
 1176.00  0.101  0.000
 1177.00  0.117  0.000
 1178.00  0.135  0.000
 1179.00  0.155  0.000
 1180.00  0.173  0.000
 1181.00  0.185  0.000
 1182.00  0.192  0.000
 1183.00  0.194  0.000
 1184.00  0.195  0.000
 1185.00  0.192  0.000
 1186.00  0.184  0.000
 1187.00  0.169  0.000
 1188.00  0.149  0.000
 1189.00  0.127  0.000
 1190.00  0.107  0.000
 1191.00  0.090  0.000
 1192.00  0.076  0.000
 1193.00  0.064  0.000
 1194.00  0.055  0.000
 1195.00  0.047  0.000
 1196.00  0.041  0.000
 1197.00  0.036  0.000
 1198.00  0.032  0.000
 1199.00  0.028  0.000
 1200.00  0.025  0.000
 1201.00  0.023  0.000
 1202.00  0.021  0.000
 1203.00  0.019  0.000
 1204.00  0.017  0.000
 1205.00  0.016  0.000
 1206.00  0.015  0.000
 1207.00  0.014  0.000
 1208.00  0.013  0.000
 1209.00  0.012  0.000
 1210.00  0.011  0.000
 1211.00  0.011  0.000
 1212.00  0.010  0.000
 1213.00  0.010  0.000
 1214.00  0.009  0.000
 1215.00  0.009  0.000
 1216.00  0.008  0.000
 1217.00  0.008  0.000
 1218.00  0.008  0.000
 1219.00  0.007  0.000
 1220.00  0.007  0.000
 1221.00  0.007  0.000
 1222.00  0.007  0.000
 1223.00  0.006  0.000
 1224.00  0.006  0.000
 1225.00  0.006  0.000
 1226.00  0.006  0.000
 1227.00  0.006  0.000
 1228.00  0.005  0.000
 1229.00  0.005  0.000
 1230.00  0.005  0.000
 1231.00  0.005  0.000
 1232.00  0.005  0.000
 1233.00  0.005  0.000
 1234.00  0.005  0.000
 1235.00  0.005  0.000
 1236.00  0.005  0.000
 1237.00  0.005  0.000
 1238.00  0.005  0.000
 1239.00  0.005  0.000
 1240.00  0.004  0.000
 1241.00  0.004  0.000
 1242.00  0.004  0.000
 1243.00  0.004  0.000
 1244.00  0.004  0.000
 1245.00  0.004  0.000
 1246.00  0.004  0.000
 1247.00  0.004  0.000
 1248.00  0.004  0.000
 1249.00  0.004  0.000
 1250.00  0.004  0.000
 1251.00  0.004  0.000
 1252.00  0.004  0.000
 1253.00  0.005  0.000
 1254.00  0.005  0.000
 1255.00  0.005  0.000
 1256.00  0.005  0.000
 1257.00  0.005  0.000
 1258.00  0.005  0.000
 1259.00  0.005  0.000
 1260.00  0.005  0.000
 1261.00  0.005  0.000
 1262.00  0.005  0.000
 1263.00  0.005  0.000
 1264.00  0.005  0.000
 1265.00  0.006  0.000
 1266.00  0.006  0.000
 1267.00  0.006  0.000
 1268.00  0.006  0.000
 1269.00  0.006  0.000
 1270.00  0.007  0.000
 1271.00  0.007  0.000
 1272.00  0.007  0.000
 1273.00  0.007  0.000
 1274.00  0.008  0.000
 1275.00  0.008  0.000
 1276.00  0.008  0.000
 1277.00  0.009  0.000
 1278.00  0.009  0.000
 1279.00  0.010  0.000
 1280.00  0.011  0.000
 1281.00  0.011  0.000
 1282.00  0.012  0.000
 1283.00  0.013  0.000
 1284.00  0.014  0.000
 1285.00  0.015  0.000
 1286.00  0.016  0.000
 1287.00  0.018  0.000
 1288.00  0.020  0.000
 1289.00  0.022  0.000
 1290.00  0.025  0.000
 1291.00  0.028  0.000
 1292.00  0.032  0.000
 1293.00  0.036  0.000
 1294.00  0.042  0.000
 1295.00  0.049  0.000
 1296.00  0.057  0.000
 1297.00  0.068  0.000
 1298.00  0.080  0.000
 1299.00  0.094  0.000
 1300.00  0.107  0.000
 1301.00  0.119  0.000
 1302.00  0.129  0.000
 1303.00  0.139  0.000
 1304.00  0.151  0.000
 1305.00  0.164  0.001
 1306.00  0.174  0.001
 1307.00  0.177  0.001
 1308.00  0.171  0.001
 1309.00  0.158  0.001
 1310.00  0.142  0.001
 1311.00  0.127  0.001
 1312.00  0.117  0.001
 1313.00  0.110  0.001
 1314.00  0.108  0.001
 1315.00  0.109  0.001
 1316.00  0.111  0.001
 1317.00  0.110  0.001
 1318.00  0.105  0.001
 1319.00  0.096  0.001
 1320.00  0.083  0.001
 1321.00  0.071  0.001
 1322.00  0.060  0.001
 1323.00  0.051  0.001
 1324.00  0.043  0.001
 1325.00  0.037  0.001
 1326.00  0.032  0.001
 1327.00  0.028  0.001
 1328.00  0.025  0.001
 1329.00  0.022  0.001
 1330.00  0.020  0.002
 1331.00  0.018  0.002
 1332.00  0.016  0.002
 1333.00  0.015  0.002
 1334.00  0.014  0.002
 1335.00  0.013  0.002
 1336.00  0.012  0.003
 1337.00  0.011  0.003
 1338.00  0.010  0.003
 1339.00  0.010  0.004
 1340.00  0.009  0.004
 1341.00  0.009  0.004
 1342.00  0.008  0.004
 1343.00  0.008  0.004
 1344.00  0.008  0.004
 1345.00  0.007  0.004
 1346.00  0.007  0.004
 1347.00  0.007  0.004
 1348.00  0.006  0.004
 1349.00  0.006  0.004
 1350.00  0.006  0.005
 1351.00  0.006  0.005
 1352.00  0.006  0.005
 1353.00  0.006  0.006
 1354.00  0.005  0.006
 1355.00  0.005  0.007
 1356.00  0.005  0.008
 1357.00  0.005  0.009
 1358.00  0.005  0.011
 1359.00  0.005  0.012
 1360.00  0.005  0.014
 1361.00  0.005  0.017
 1362.00  0.005  0.020
 1363.00  0.005  0.024
 1364.00  0.005  0.030
 1365.00  0.005  0.036
 1366.00  0.005  0.044
 1367.00  0.005  0.052
 1368.00  0.005  0.059
 1369.00  0.005  0.063
 1370.00  0.005  0.062
 1371.00  0.005  0.057
 1372.00  0.005  0.049
 1373.00  0.005  0.041
 1374.00  0.005  0.034
 1375.00  0.005  0.028
 1376.00  0.005  0.023
 1377.00  0.005  0.019
 1378.00  0.005  0.016
 1379.00  0.005  0.013
 1380.00  0.005  0.011
 1381.00  0.006  0.010
 1382.00  0.006  0.009
 1383.00  0.006  0.008
 1384.00  0.006  0.007
 1385.00  0.006  0.006
 1386.00  0.007  0.005
 1387.00  0.007  0.005
 1388.00  0.007  0.004
 1389.00  0.008  0.004
 1390.00  0.008  0.004
 1391.00  0.008  0.003
 1392.00  0.009  0.003
 1393.00  0.009  0.003
 1394.00  0.010  0.003
 1395.00  0.011  0.002
 1396.00  0.012  0.002
 1397.00  0.013  0.002
 1398.00  0.014  0.002
 1399.00  0.015  0.002
 1400.00  0.016  0.002
 1401.00  0.018  0.002
 1402.00  0.020  0.002
 1403.00  0.023  0.001
 1404.00  0.026  0.001
 1405.00  0.030  0.001
 1406.00  0.035  0.001
 1407.00  0.041  0.001
 1408.00  0.048  0.001
 1409.00  0.057  0.001
 1410.00  0.068  0.001
 1411.00  0.079  0.001
 1412.00  0.091  0.001
 1413.00  0.103  0.001
 1414.00  0.113  0.001
 1415.00  0.123  0.001
 1416.00  0.130  0.001
 1417.00  0.132  0.001
 1418.00  0.129  0.001
 1419.00  0.122  0.001
 1420.00  0.115  0.001
 1421.00  0.109  0.001
 1422.00  0.104  0.001
 1423.00  0.101  0.001
 1424.00  0.098  0.001
 1425.00  0.096  0.001
 1426.00  0.092  0.001
 1427.00  0.086  0.001
 1428.00  0.077  0.001
 1429.00  0.066  0.001
 1430.00  0.056  0.001
 1431.00  0.048  0.001
 1432.00  0.040  0.001
 1433.00  0.034  0.000
 1434.00  0.029  0.000
 1435.00  0.025  0.000
 1436.00  0.022  0.000
 1437.00  0.020  0.000
 1438.00  0.018  0.000
 1439.00  0.016  0.000
 1440.00  0.014  0.000
 1441.00  0.013  0.000
 1442.00  0.012  0.000
 1443.00  0.011  0.000
 1444.00  0.010  0.000
 1445.00  0.009  0.000
 1446.00  0.009  0.000
 1447.00  0.008  0.000
 1448.00  0.008  0.000
 1449.00  0.007  0.000
 1450.00  0.007  0.000
 1451.00  0.006  0.000
 1452.00  0.006  0.000
 1453.00  0.006  0.000
 1454.00  0.006  0.000
 1455.00  0.005  0.000
 1456.00  0.005  0.000
 1457.00  0.005  0.000
 1458.00  0.005  0.000
 1459.00  0.004  0.000
 1460.00  0.004  0.000
 1461.00  0.004  0.000
 1462.00  0.004  0.000
 1463.00  0.004  0.000
 1464.00  0.004  0.000
 1465.00  0.004  0.000
 1466.00  0.004  0.000
 1467.00  0.003  0.000
 1468.00  0.003  0.000
 1469.00  0.003  0.000
 1470.00  0.003  0.001
 1471.00  0.003  0.001
 1472.00  0.003  0.001
 1473.00  0.003  0.001
 1474.00  0.003  0.001
 1475.00  0.003  0.001
 1476.00  0.003  0.001
 1477.00  0.003  0.001
 1478.00  0.003  0.001
 1479.00  0.003  0.001
 1480.00  0.003  0.001
 1481.00  0.003  0.001
 1482.00  0.003  0.001
 1483.00  0.003  0.002
 1484.00  0.003  0.002
 1485.00  0.003  0.002
 1486.00  0.003  0.003
 1487.00  0.002  0.003
 1488.00  0.002  0.004
 1489.00  0.002  0.004
 1490.00  0.002  0.005
 1491.00  0.002  0.006
 1492.00  0.002  0.006
 1493.00  0.002  0.006
 1494.00  0.002  0.006
 1495.00  0.002  0.005
 1496.00  0.002  0.004
 1497.00  0.002  0.004
 1498.00  0.002  0.003
 1499.00  0.002  0.003
 1500.00  0.002  0.002
 1501.00  0.002  0.002
 1502.00  0.002  0.002
 1503.00  0.002  0.001
 1504.00  0.002  0.001
 1505.00  0.002  0.001
 1506.00  0.002  0.001
 1507.00  0.002  0.001
 1508.00  0.002  0.001
 1509.00  0.002  0.001
 1510.00  0.002  0.001
 1511.00  0.002  0.001
 1512.00  0.002  0.001
 1513.00  0.002  0.000
 1514.00  0.002  0.000
 1515.00  0.002  0.000
 1516.00  0.002  0.000
 1517.00  0.002  0.000
 1518.00  0.002  0.000
 1519.00  0.002  0.000
 1520.00  0.003  0.000
 1521.00  0.003  0.000
 1522.00  0.003  0.000
 1523.00  0.003  0.000
 1524.00  0.003  0.000
 1525.00  0.003  0.000
 1526.00  0.003  0.000
 1527.00  0.003  0.000
 1528.00  0.003  0.000
 1529.00  0.003  0.000
 1530.00  0.003  0.000
 1531.00  0.003  0.000
 1532.00  0.003  0.000
 1533.00  0.003  0.000
 1534.00  0.003  0.000
 1535.00  0.003  0.000
 1536.00  0.003  0.000
 1537.00  0.003  0.000
 1538.00  0.003  0.000
 1539.00  0.003  0.000
 1540.00  0.003  0.000
 1541.00  0.003  0.000
 1542.00  0.003  0.000
 1543.00  0.003  0.000
 1544.00  0.004  0.000
 1545.00  0.004  0.000
 1546.00  0.004  0.000
 1547.00  0.004  0.000
 1548.00  0.004  0.000
 1549.00  0.004  0.000
 1550.00  0.004  0.000
 1551.00  0.004  0.000
 1552.00  0.004  0.000
 1553.00  0.004  0.000
 1554.00  0.004  0.000
 1555.00  0.005  0.000
 1556.00  0.005  0.000
 1557.00  0.005  0.000
 1558.00  0.005  0.000
 1559.00  0.005  0.000
 1560.00  0.005  0.000
 1561.00  0.005  0.000
 1562.00  0.006  0.000
 1563.00  0.006  0.000
 1564.00  0.006  0.000
 1565.00  0.006  0.000
 1566.00  0.006  0.000
 1567.00  0.007  0.000
 1568.00  0.007  0.000
 1569.00  0.007  0.000
 1570.00  0.008  0.000
 1571.00  0.008  0.000
 1572.00  0.008  0.000
 1573.00  0.009  0.000
 1574.00  0.009  0.000
 1575.00  0.009  0.000
 1576.00  0.010  0.000
 1577.00  0.010  0.000
 1578.00  0.011  0.000
 1579.00  0.011  0.000
 1580.00  0.012  0.000
 1581.00  0.013  0.000
 1582.00  0.013  0.000
 1583.00  0.014  0.000
 1584.00  0.015  0.000
 1585.00  0.016  0.000
 1586.00  0.017  0.000
 1587.00  0.018  0.000
 1588.00  0.019  0.000
 1589.00  0.021  0.000
 1590.00  0.022  0.000
 1591.00  0.024  0.000
 1592.00  0.026  0.000
 1593.00  0.028  0.000
 1594.00  0.030  0.000
 1595.00  0.033  0.000
 1596.00  0.036  0.000
 1597.00  0.040  0.000
 1598.00  0.045  0.000
 1599.00  0.050  0.000
 1600.00  0.055  0.000
 1601.00  0.062  0.000
 1602.00  0.071  0.000
 1603.00  0.081  0.000
 1604.00  0.093  0.000
 1605.00  0.108  0.000
 1606.00  0.127  0.000
 1607.00  0.150  0.000
 1608.00  0.180  0.000
 1609.00  0.217  0.000
 1610.00  0.264  0.000
 1611.00  0.322  0.000
 1612.00  0.390  0.000
 1613.00  0.464  0.000
 1614.00  0.532  0.000
 1615.00  0.575  0.000
 1616.00  0.577  0.000
 1617.00  0.536  0.000
 1618.00  0.469  0.000
 1619.00  0.394  0.000
 1620.00  0.325  0.000
 1621.00  0.267  0.000
 1622.00  0.219  0.000
 1623.00  0.182  0.000
 1624.00  0.152  0.000
 1625.00  0.129  0.000
 1626.00  0.110  0.000
 1627.00  0.096  0.000
 1628.00  0.084  0.000
 1629.00  0.074  0.000
 1630.00  0.066  0.000
 1631.00  0.060  0.000
 1632.00  0.055  0.000
 1633.00  0.051  0.000
 1634.00  0.048  0.000
 1635.00  0.045  0.000
 1636.00  0.042  0.000
 1637.00  0.039  0.000
 1638.00  0.035  0.000
 1639.00  0.032  0.000
 1640.00  0.029  0.000
 1641.00  0.026  0.000
 1642.00  0.024  0.000
 1643.00  0.022  0.000
 1644.00  0.020  0.000
 1645.00  0.019  0.000
 1646.00  0.017  0.000
 1647.00  0.016  0.000
 1648.00  0.015  0.000
 1649.00  0.014  0.000
 1650.00  0.013  0.000
 1651.00  0.013  0.000
 1652.00  0.012  0.000
 1653.00  0.011  0.000
 1654.00  0.011  0.000
 1655.00  0.010  0.000
 1656.00  0.010  0.000
 1657.00  0.009  0.000
 1658.00  0.009  0.000
 1659.00  0.008  0.000
 1660.00  0.008  0.000
 1661.00  0.008  0.000
 1662.00  0.007  0.000
 1663.00  0.007  0.000
 1664.00  0.007  0.000
 1665.00  0.006  0.000
 1666.00  0.006  0.000
 1667.00  0.006  0.000
 1668.00  0.006  0.000
 1669.00  0.006  0.000
 1670.00  0.005  0.000
 1671.00  0.005  0.000
 1672.00  0.005  0.000
 1673.00  0.005  0.000
 1674.00  0.005  0.000
 1675.00  0.005  0.000
 1676.00  0.004  0.000
 1677.00  0.004  0.000
 1678.00  0.004  0.000
 1679.00  0.004  0.000
 1680.00  0.004  0.000
 1681.00  0.004  0.000
 1682.00  0.004  0.000
 1683.00  0.004  0.000
 1684.00  0.003  0.000
 1685.00  0.003  0.000
 1686.00  0.003  0.000
 1687.00  0.003  0.000
 1688.00  0.003  0.000
 1689.00  0.003  0.000
 1690.00  0.003  0.000
 1691.00  0.003  0.000
 1692.00  0.003  0.000
 1693.00  0.003  0.000
 1694.00  0.003  0.000
 1695.00  0.003  0.000
 1696.00  0.003  0.000
 1697.00  0.003  0.000
 1698.00  0.002  0.000
 1699.00  0.002  0.000
 1700.00  0.002  0.000
 1701.00  0.002  0.000
 1702.00  0.002  0.000
 1703.00  0.002  0.000
 1704.00  0.002  0.000
 1705.00  0.002  0.000
 1706.00  0.002  0.000
 1707.00  0.002  0.000
 1708.00  0.002  0.000
 1709.00  0.002  0.000
 1710.00  0.002  0.000
 1711.00  0.002  0.000
 1712.00  0.002  0.000
 1713.00  0.002  0.000
 1714.00  0.002  0.000
 1715.00  0.002  0.000
 1716.00  0.002  0.000
 1717.00  0.002  0.000
 1718.00  0.002  0.000
 1719.00  0.002  0.000
 1720.00  0.002  0.000
 1721.00  0.002  0.000
 1722.00  0.002  0.000
 1723.00  0.002  0.000
 1724.00  0.002  0.000
 1725.00  0.001  0.000
 1726.00  0.001  0.000
 1727.00  0.001  0.000
 1728.00  0.001  0.000
 1729.00  0.001  0.000
 1730.00  0.001  0.000
 1731.00  0.001  0.000
 1732.00  0.001  0.000
 1733.00  0.001  0.000
 1734.00  0.001  0.000
 1735.00  0.001  0.000
 1736.00  0.001  0.000
 1737.00  0.001  0.000
 1738.00  0.001  0.000
 1739.00  0.001  0.000
 1740.00  0.001  0.000
 1741.00  0.001  0.000
 1742.00  0.001  0.000
 1743.00  0.001  0.000
 1744.00  0.001  0.000
 1745.00  0.001  0.000
 1746.00  0.001  0.000
 1747.00  0.001  0.000
 1748.00  0.001  0.000
 1749.00  0.001  0.000
 1750.00  0.001  0.000
 1751.00  0.001  0.000
 1752.00  0.001  0.000
 1753.00  0.001  0.000
 1754.00  0.001  0.000
 1755.00  0.001  0.000
 1756.00  0.001  0.000
 1757.00  0.001  0.000
 1758.00  0.001  0.000
 1759.00  0.001  0.000
 1760.00  0.001  0.000
 1761.00  0.001  0.000
 1762.00  0.001  0.000
 1763.00  0.001  0.000
 1764.00  0.001  0.000
 1765.00  0.001  0.000
 1766.00  0.001  0.000
 1767.00  0.001  0.000
 1768.00  0.001  0.000
 1769.00  0.001  0.000
 1770.00  0.001  0.000
 1771.00  0.001  0.000
 1772.00  0.001  0.000
 1773.00  0.001  0.000
 1774.00  0.001  0.000
 1775.00  0.001  0.000
 1776.00  0.001  0.000
 1777.00  0.001  0.000
 1778.00  0.001  0.000
 1779.00  0.001  0.000
 1780.00  0.001  0.000
 1781.00  0.001  0.000
 1782.00  0.001  0.000
 1783.00  0.001  0.000
 1784.00  0.001  0.000
 1785.00  0.001  0.000
 1786.00  0.001  0.000
 1787.00  0.001  0.000
 1788.00  0.001  0.000
 1789.00  0.001  0.000
 1790.00  0.001  0.000
 1791.00  0.001  0.000
 1792.00  0.001  0.000
 1793.00  0.001  0.000
 1794.00  0.001  0.000
 1795.00  0.001  0.000
 1796.00  0.001  0.000
 1797.00  0.001  0.000
 1798.00  0.001  0.000
 1799.00  0.001  0.000
 1800.00  0.001  0.000
 1801.00  0.001  0.000
 1802.00  0.001  0.000
 1803.00  0.001  0.000
 1804.00  0.001  0.000
 1805.00  0.001  0.000
 1806.00  0.001  0.000
 1807.00  0.001  0.000
 1808.00  0.001  0.000
 1809.00  0.001  0.000
 1810.00  0.001  0.000
 1811.00  0.001  0.000
 1812.00  0.001  0.000
 1813.00  0.001  0.000
 1814.00  0.001  0.000
 1815.00  0.001  0.000
 1816.00  0.001  0.000
 1817.00  0.001  0.000
 1818.00  0.001  0.000
 1819.00  0.001  0.000
 1820.00  0.001  0.000
 1821.00  0.001  0.000
 1822.00  0.001  0.000
 1823.00  0.001  0.000
 1824.00  0.001  0.000
 1825.00  0.001  0.000
 1826.00  0.001  0.000
 1827.00  0.001  0.000
 1828.00  0.001  0.000
 1829.00  0.000  0.000
 1830.00  0.000  0.000
 1831.00  0.000  0.000
 1832.00  0.000  0.000
 1833.00  0.000  0.000
 1834.00  0.000  0.000
 1835.00  0.000  0.000
 1836.00  0.000  0.000
 1837.00  0.000  0.000
 1838.00  0.000  0.000
 1839.00  0.000  0.000
 1840.00  0.000  0.000
 1841.00  0.000  0.000
 1842.00  0.000  0.000
 1843.00  0.000  0.000
 1844.00  0.000  0.000
 1845.00  0.000  0.000
 1846.00  0.000  0.000
 1847.00  0.000  0.000
 1848.00  0.000  0.000
 1849.00  0.000  0.000
 1850.00  0.000  0.000
 1851.00  0.000  0.000
 1852.00  0.000  0.000
 1853.00  0.000  0.000
 1854.00  0.000  0.000
 1855.00  0.000  0.000
 1856.00  0.000  0.000
 1857.00  0.000  0.000
 1858.00  0.000  0.000
 1859.00  0.000  0.000
 1860.00  0.000  0.000
 1861.00  0.000  0.000
 1862.00  0.000  0.000
 1863.00  0.000  0.000
 1864.00  0.000  0.000
 1865.00  0.000  0.000
 1866.00  0.000  0.000
 1867.00  0.000  0.000
 1868.00  0.000  0.000
 1869.00  0.000  0.000
 1870.00  0.000  0.000
 1871.00  0.000  0.000
 1872.00  0.000  0.000
 1873.00  0.000  0.000
 1874.00  0.000  0.000
 1875.00  0.000  0.000
 1876.00  0.000  0.000
 1877.00  0.000  0.000
 1878.00  0.000  0.000
 1879.00  0.000  0.000
 1880.00  0.000  0.000
 1881.00  0.000  0.000
 1882.00  0.000  0.000
 1883.00  0.000  0.000
 1884.00  0.000  0.000
 1885.00  0.000  0.000
 1886.00  0.000  0.000
 1887.00  0.000  0.000
 1888.00  0.000  0.000
 1889.00  0.000  0.000
 1890.00  0.000  0.000
 1891.00  0.000  0.000
 1892.00  0.000  0.000
 1893.00  0.000  0.000
 1894.00  0.000  0.000
 1895.00  0.000  0.000
 1896.00  0.000  0.000
 1897.00  0.000  0.000
 1898.00  0.000  0.000
 1899.00  0.000  0.000
 1900.00  0.000  0.000
 1901.00  0.000  0.000
 1902.00  0.000  0.000
 1903.00  0.000  0.000
 1904.00  0.000  0.000
 1905.00  0.000  0.000
 1906.00  0.000  0.000
 1907.00  0.000  0.000
 1908.00  0.000  0.000
 1909.00  0.000  0.000
 1910.00  0.000  0.000
 1911.00  0.000  0.000
 1912.00  0.000  0.000
 1913.00  0.000  0.000
 1914.00  0.000  0.000
 1915.00  0.000  0.000
 1916.00  0.000  0.000
 1917.00  0.000  0.000
 1918.00  0.000  0.000
 1919.00  0.000  0.000
 1920.00  0.000  0.000
 1921.00  0.000  0.000
 1922.00  0.000  0.000
 1923.00  0.000  0.000
 1924.00  0.000  0.000
 1925.00  0.000  0.000
 1926.00  0.000  0.000
 1927.00  0.000  0.000
 1928.00  0.000  0.000
 1929.00  0.000  0.000
 1930.00  0.000  0.000
 1931.00  0.000  0.000
 1932.00  0.000  0.000
 1933.00  0.000  0.000
 1934.00  0.000  0.000
 1935.00  0.000  0.000
 1936.00  0.000  0.000
 1937.00  0.000  0.000
 1938.00  0.000  0.000
 1939.00  0.000  0.000
 1940.00  0.000  0.000
 1941.00  0.000  0.000
 1942.00  0.000  0.000
 1943.00  0.000  0.000
 1944.00  0.000  0.000
 1945.00  0.000  0.000
 1946.00  0.000  0.000
 1947.00  0.000  0.000
 1948.00  0.000  0.000
 1949.00  0.000  0.000
 1950.00  0.000  0.000
 1951.00  0.000  0.000
 1952.00  0.000  0.000
 1953.00  0.000  0.000
 1954.00  0.000  0.000
 1955.00  0.000  0.000
 1956.00  0.000  0.000
 1957.00  0.000  0.000
 1958.00  0.000  0.000
 1959.00  0.000  0.000
 1960.00  0.000  0.000
 1961.00  0.000  0.000
 1962.00  0.000  0.000
 1963.00  0.000  0.000
 1964.00  0.000  0.000
 1965.00  0.000  0.000
 1966.00  0.000  0.000
 1967.00  0.000  0.000
 1968.00  0.000  0.000
 1969.00  0.000  0.000
 1970.00  0.000  0.000
 1971.00  0.000  0.000
 1972.00  0.000  0.000
 1973.00  0.000  0.000
 1974.00  0.000  0.000
 1975.00  0.000  0.000
 1976.00  0.000  0.000
 1977.00  0.000  0.000
 1978.00  0.000  0.000
 1979.00  0.000  0.000
 1980.00  0.000  0.000
 1981.00  0.000  0.000
 1982.00  0.000  0.000
 1983.00  0.000  0.000
 1984.00  0.000  0.000
 1985.00  0.000  0.000
 1986.00  0.000  0.000
 1987.00  0.000  0.000
 1988.00  0.000  0.000
 1989.00  0.000  0.000
 1990.00  0.000  0.000
 1991.00  0.000  0.000
 1992.00  0.000  0.000
 1993.00  0.000  0.000
 1994.00  0.000  0.000
 1995.00  0.000  0.000
 1996.00  0.000  0.000
 1997.00  0.000  0.000
 1998.00  0.000  0.000
 1999.00  0.000  0.000
 2000.00  0.000  0.000
 2001.00  0.000  0.000
 2002.00  0.000  0.000
 2003.00  0.000  0.000
 2004.00  0.000  0.000
 2005.00  0.000  0.000
 2006.00  0.000  0.000
 2007.00  0.000  0.000
 2008.00  0.000  0.000
 2009.00  0.000  0.000
 2010.00  0.000  0.000
 2011.00  0.000  0.000
 2012.00  0.000  0.000
 2013.00  0.000  0.000
 2014.00  0.000  0.000
 2015.00  0.000  0.000
 2016.00  0.000  0.000
 2017.00  0.000  0.000
 2018.00  0.000  0.000
 2019.00  0.000  0.000
 2020.00  0.000  0.000
 2021.00  0.000  0.000
 2022.00  0.000  0.000
 2023.00  0.000  0.000
 2024.00  0.000  0.000
 2025.00  0.000  0.000
 2026.00  0.000  0.000
 2027.00  0.000  0.000
 2028.00  0.000  0.000
 2029.00  0.000  0.000
 2030.00  0.000  0.000
 2031.00  0.000  0.000
 2032.00  0.000  0.000
 2033.00  0.000  0.000
 2034.00  0.000  0.000
 2035.00  0.000  0.000
 2036.00  0.000  0.000
 2037.00  0.000  0.000
 2038.00  0.000  0.000
 2039.00  0.000  0.000
 2040.00  0.000  0.000
 2041.00  0.000  0.000
 2042.00  0.000  0.000
 2043.00  0.000  0.000
 2044.00  0.000  0.000
 2045.00  0.000  0.000
 2046.00  0.000  0.000
 2047.00  0.000  0.000
 2048.00  0.000  0.000
 2049.00  0.000  0.000
 2050.00  0.000  0.000
 2051.00  0.000  0.000
 2052.00  0.000  0.000
 2053.00  0.000  0.000
 2054.00  0.000  0.000
 2055.00  0.000  0.000
 2056.00  0.000  0.000
 2057.00  0.000  0.000
 2058.00  0.000  0.000
 2059.00  0.000  0.000
 2060.00  0.000  0.000
 2061.00  0.000  0.000
 2062.00  0.000  0.000
 2063.00  0.000  0.000
 2064.00  0.000  0.000
 2065.00  0.000  0.000
 2066.00  0.000  0.000
 2067.00  0.000  0.000
 2068.00  0.000  0.000
 2069.00  0.000  0.000
 2070.00  0.000  0.000
 2071.00  0.000  0.000
 2072.00  0.000  0.000
 2073.00  0.000  0.000
 2074.00  0.000  0.000
 2075.00  0.000  0.000
 2076.00  0.000  0.000
 2077.00  0.000  0.000
 2078.00  0.000  0.000
 2079.00  0.000  0.000
 2080.00  0.000  0.000
 2081.00  0.000  0.000
 2082.00  0.000  0.000
 2083.00  0.000  0.000
 2084.00  0.000  0.000
 2085.00  0.000  0.000
 2086.00  0.000  0.000
 2087.00  0.000  0.000
 2088.00  0.000  0.000
 2089.00  0.000  0.000
 2090.00  0.000  0.000
 2091.00  0.000  0.000
 2092.00  0.000  0.000
 2093.00  0.000  0.000
 2094.00  0.000  0.000
 2095.00  0.000  0.000
 2096.00  0.000  0.000
 2097.00  0.000  0.000
 2098.00  0.000  0.000
 2099.00  0.000  0.000
 2100.00  0.000  0.000
 2101.00  0.000  0.000
 2102.00  0.000  0.000
 2103.00  0.000  0.000
 2104.00  0.000  0.000
 2105.00  0.000  0.000
 2106.00  0.000  0.000
 2107.00  0.000  0.000
 2108.00  0.000  0.000
 2109.00  0.000  0.000
 2110.00  0.000  0.000
 2111.00  0.000  0.000
 2112.00  0.000  0.000
 2113.00  0.000  0.000
 2114.00  0.000  0.000
 2115.00  0.000  0.000
 2116.00  0.000  0.000
 2117.00  0.000  0.000
 2118.00  0.000  0.000
 2119.00  0.000  0.000
 2120.00  0.000  0.000
 2121.00  0.000  0.000
 2122.00  0.000  0.000
 2123.00  0.000  0.000
 2124.00  0.000  0.000
 2125.00  0.000  0.000
 2126.00  0.000  0.000
 2127.00  0.000  0.000
 2128.00  0.000  0.000
 2129.00  0.000  0.000
 2130.00  0.000  0.000
 2131.00  0.000  0.000
 2132.00  0.000  0.000
 2133.00  0.000  0.000
 2134.00  0.000  0.000
 2135.00  0.000  0.000
 2136.00  0.000  0.000
 2137.00  0.000  0.000
 2138.00  0.000  0.000
 2139.00  0.000  0.000
 2140.00  0.000  0.000
 2141.00  0.000  0.000
 2142.00  0.000  0.000
 2143.00  0.000  0.000
 2144.00  0.000  0.000
 2145.00  0.000  0.000
 2146.00  0.000  0.000
 2147.00  0.000  0.000
 2148.00  0.000  0.000
 2149.00  0.000  0.000
 2150.00  0.000  0.000
 2151.00  0.000  0.000
 2152.00  0.000  0.000
 2153.00  0.000  0.000
 2154.00  0.000  0.000
 2155.00  0.000  0.000
 2156.00  0.000  0.000
 2157.00  0.000  0.000
 2158.00  0.000  0.000
 2159.00  0.000  0.000
 2160.00  0.000  0.000
 2161.00  0.000  0.000
 2162.00  0.000  0.000
 2163.00  0.000  0.000
 2164.00  0.000  0.000
 2165.00  0.000  0.000
 2166.00  0.000  0.000
 2167.00  0.000  0.000
 2168.00  0.000  0.000
 2169.00  0.000  0.000
 2170.00  0.000  0.000
 2171.00  0.000  0.000
 2172.00  0.000  0.000
 2173.00  0.000  0.000
 2174.00  0.000  0.000
 2175.00  0.000  0.000
 2176.00  0.000  0.000
 2177.00  0.000  0.000
 2178.00  0.000  0.000
 2179.00  0.000  0.000
 2180.00  0.000  0.000
 2181.00  0.000  0.000
 2182.00  0.000  0.000
 2183.00  0.000  0.000
 2184.00  0.000  0.000
 2185.00  0.000  0.000
 2186.00  0.000  0.000
 2187.00  0.000  0.000
 2188.00  0.000  0.000
 2189.00  0.000  0.000
 2190.00  0.000  0.000
 2191.00  0.000  0.000
 2192.00  0.000  0.000
 2193.00  0.000  0.000
 2194.00  0.000  0.000
 2195.00  0.000  0.000
 2196.00  0.000  0.000
 2197.00  0.000  0.000
 2198.00  0.000  0.000
 2199.00  0.000  0.000
 2200.00  0.000  0.000
 2201.00  0.000  0.000
 2202.00  0.000  0.000
 2203.00  0.000  0.000
 2204.00  0.000  0.000
 2205.00  0.000  0.000
 2206.00  0.000  0.000
 2207.00  0.000  0.000
 2208.00  0.000  0.000
 2209.00  0.000  0.000
 2210.00  0.000  0.000
 2211.00  0.000  0.000
 2212.00  0.000  0.000
 2213.00  0.000  0.000
 2214.00  0.000  0.000
 2215.00  0.000  0.000
 2216.00  0.000  0.000
 2217.00  0.000  0.000
 2218.00  0.000  0.000
 2219.00  0.000  0.000
 2220.00  0.000  0.000
 2221.00  0.000  0.000
 2222.00  0.000  0.000
 2223.00  0.000  0.000
 2224.00  0.000  0.000
 2225.00  0.000  0.000
 2226.00  0.000  0.000
 2227.00  0.000  0.000
 2228.00  0.000  0.000
 2229.00  0.000  0.000
 2230.00  0.000  0.000
 2231.00  0.000  0.000
 2232.00  0.000  0.000
 2233.00  0.000  0.000
 2234.00  0.000  0.000
 2235.00  0.000  0.000
 2236.00  0.000  0.000
 2237.00  0.000  0.000
 2238.00  0.000  0.000
 2239.00  0.000  0.000
 2240.00  0.000  0.000
 2241.00  0.000  0.000
 2242.00  0.000  0.000
 2243.00  0.000  0.000
 2244.00  0.000  0.000
 2245.00  0.000  0.000
 2246.00  0.000  0.000
 2247.00  0.000  0.000
 2248.00  0.000  0.000
 2249.00  0.000  0.000
 2250.00  0.000  0.000
 2251.00  0.000  0.000
 2252.00  0.000  0.000
 2253.00  0.000  0.000
 2254.00  0.000  0.000
 2255.00  0.000  0.000
 2256.00  0.000  0.000
 2257.00  0.000  0.000
 2258.00  0.000  0.000
 2259.00  0.000  0.000
 2260.00  0.000  0.000
 2261.00  0.000  0.000
 2262.00  0.000  0.000
 2263.00  0.000  0.000
 2264.00  0.000  0.000
 2265.00  0.000  0.000
 2266.00  0.000  0.000
 2267.00  0.000  0.000
 2268.00  0.000  0.000
 2269.00  0.000  0.000
 2270.00  0.000  0.000
 2271.00  0.000  0.000
 2272.00  0.000  0.000
 2273.00  0.000  0.000
 2274.00  0.000  0.000
 2275.00  0.000  0.000
 2276.00  0.000  0.000
 2277.00  0.000  0.000
 2278.00  0.000  0.000
 2279.00  0.000  0.000
 2280.00  0.000  0.000
 2281.00  0.000  0.000
 2282.00  0.000  0.000
 2283.00  0.000  0.000
 2284.00  0.000  0.000
 2285.00  0.000  0.000
 2286.00  0.000  0.000
 2287.00  0.000  0.000
 2288.00  0.000  0.000
 2289.00  0.000  0.000
 2290.00  0.000  0.000
 2291.00  0.000  0.000
 2292.00  0.000  0.000
 2293.00  0.000  0.000
 2294.00  0.000  0.000
 2295.00  0.000  0.000
 2296.00  0.000  0.000
 2297.00  0.000  0.000
 2298.00  0.000  0.000
 2299.00  0.000  0.000
 2300.00  0.000  0.000
 2301.00  0.000  0.000
 2302.00  0.000  0.000
 2303.00  0.000  0.000
 2304.00  0.000  0.000
 2305.00  0.000  0.000
 2306.00  0.000  0.000
 2307.00  0.000  0.000
 2308.00  0.000  0.000
 2309.00  0.000  0.000
 2310.00  0.000  0.000
 2311.00  0.000  0.000
 2312.00  0.000  0.000
 2313.00  0.000  0.000
 2314.00  0.000  0.000
 2315.00  0.000  0.000
 2316.00  0.000  0.000
 2317.00  0.000  0.000
 2318.00  0.000  0.000
 2319.00  0.000  0.000
 2320.00  0.000  0.000
 2321.00  0.000  0.000
 2322.00  0.000  0.000
 2323.00  0.000  0.000
 2324.00  0.000  0.000
 2325.00  0.000  0.000
 2326.00  0.000  0.000
 2327.00  0.000  0.000
 2328.00  0.000  0.000
 2329.00  0.000  0.000
 2330.00  0.000  0.000
 2331.00  0.000  0.000
 2332.00  0.000  0.000
 2333.00  0.000  0.000
 2334.00  0.000  0.000
 2335.00  0.000  0.000
 2336.00  0.000  0.000
 2337.00  0.000  0.000
 2338.00  0.000  0.000
 2339.00  0.000  0.000
 2340.00  0.000  0.000
 2341.00  0.000  0.000
 2342.00  0.000  0.000
 2343.00  0.000  0.000
 2344.00  0.000  0.000
 2345.00  0.000  0.000
 2346.00  0.000  0.000
 2347.00  0.000  0.000
 2348.00  0.000  0.000
 2349.00  0.000  0.000
 2350.00  0.000  0.000
 2351.00  0.000  0.000
 2352.00  0.000  0.000
 2353.00  0.000  0.000
 2354.00  0.000  0.000
 2355.00  0.000  0.000
 2356.00  0.000  0.000
 2357.00  0.000  0.000
 2358.00  0.000  0.000
 2359.00  0.000  0.000
 2360.00  0.000  0.000
 2361.00  0.000  0.000
 2362.00  0.000  0.000
 2363.00  0.000  0.000
 2364.00  0.000  0.000
 2365.00  0.000  0.000
 2366.00  0.000  0.000
 2367.00  0.000  0.000
 2368.00  0.000  0.000
 2369.00  0.000  0.000
 2370.00  0.000  0.000
 2371.00  0.000  0.000
 2372.00  0.000  0.000
 2373.00  0.000  0.000
 2374.00  0.000  0.000
 2375.00  0.000  0.000
 2376.00  0.000  0.000
 2377.00  0.000  0.000
 2378.00  0.000  0.000
 2379.00  0.000  0.000
 2380.00  0.000  0.000
 2381.00  0.000  0.000
 2382.00  0.000  0.000
 2383.00  0.000  0.000
 2384.00  0.000  0.000
 2385.00  0.000  0.000
 2386.00  0.000  0.000
 2387.00  0.000  0.000
 2388.00  0.000  0.000
 2389.00  0.000  0.000
 2390.00  0.000  0.000
 2391.00  0.000  0.000
 2392.00  0.000  0.000
 2393.00  0.000  0.000
 2394.00  0.000  0.000
 2395.00  0.000  0.000
 2396.00  0.000  0.000
 2397.00  0.000  0.000
 2398.00  0.000  0.000
 2399.00  0.000  0.000
 2400.00  0.000  0.000
 2401.00  0.000  0.000
 2402.00  0.000  0.000
 2403.00  0.000  0.000
 2404.00  0.000  0.000
 2405.00  0.000  0.000
 2406.00  0.000  0.000
 2407.00  0.000  0.000
 2408.00  0.000  0.000
 2409.00  0.000  0.000
 2410.00  0.000  0.000
 2411.00  0.000  0.000
 2412.00  0.000  0.000
 2413.00  0.000  0.000
 2414.00  0.000  0.000
 2415.00  0.000  0.000
 2416.00  0.000  0.000
 2417.00  0.000  0.000
 2418.00  0.000  0.000
 2419.00  0.000  0.000
 2420.00  0.000  0.000
 2421.00  0.000  0.000
 2422.00  0.000  0.000
 2423.00  0.000  0.000
 2424.00  0.000  0.000
 2425.00  0.000  0.000
 2426.00  0.000  0.000
 2427.00  0.000  0.000
 2428.00  0.000  0.000
 2429.00  0.000  0.000
 2430.00  0.000  0.000
 2431.00  0.000  0.000
 2432.00  0.000  0.000
 2433.00  0.000  0.000
 2434.00  0.000  0.000
 2435.00  0.000  0.000
 2436.00  0.000  0.000
 2437.00  0.000  0.000
 2438.00  0.000  0.000
 2439.00  0.000  0.000
 2440.00  0.000  0.000
 2441.00  0.000  0.000
 2442.00  0.000  0.000
 2443.00  0.000  0.000
 2444.00  0.000  0.000
 2445.00  0.000  0.000
 2446.00  0.000  0.000
 2447.00  0.000  0.000
 2448.00  0.000  0.000
 2449.00  0.000  0.000
 2450.00  0.000  0.000
 2451.00  0.000  0.000
 2452.00  0.000  0.000
 2453.00  0.000  0.000
 2454.00  0.000  0.000
 2455.00  0.000  0.000
 2456.00  0.000  0.000
 2457.00  0.000  0.000
 2458.00  0.000  0.000
 2459.00  0.000  0.000
 2460.00  0.000  0.000
 2461.00  0.000  0.000
 2462.00  0.000  0.000
 2463.00  0.000  0.000
 2464.00  0.000  0.000
 2465.00  0.000  0.000
 2466.00  0.000  0.000
 2467.00  0.000  0.000
 2468.00  0.000  0.000
 2469.00  0.000  0.000
 2470.00  0.000  0.000
 2471.00  0.000  0.000
 2472.00  0.000  0.000
 2473.00  0.000  0.000
 2474.00  0.000  0.000
 2475.00  0.000  0.000
 2476.00  0.000  0.000
 2477.00  0.000  0.000
 2478.00  0.000  0.000
 2479.00  0.000  0.000
 2480.00  0.000  0.000
 2481.00  0.000  0.000
 2482.00  0.000  0.000
 2483.00  0.000  0.000
 2484.00  0.000  0.000
 2485.00  0.000  0.000
 2486.00  0.000  0.000
 2487.00  0.000  0.000
 2488.00  0.000  0.000
 2489.00  0.000  0.000
 2490.00  0.000  0.000
 2491.00  0.000  0.000
 2492.00  0.000  0.000
 2493.00  0.000  0.000
 2494.00  0.000  0.000
 2495.00  0.000  0.000
 2496.00  0.000  0.000
 2497.00  0.000  0.000
 2498.00  0.000  0.000
 2499.00  0.000  0.000
 2500.00  0.000  0.000
 2501.00  0.000  0.000
 2502.00  0.000  0.000
 2503.00  0.000  0.000
 2504.00  0.000  0.000
 2505.00  0.000  0.000
 2506.00  0.000  0.000
 2507.00  0.000  0.000
 2508.00  0.000  0.000
 2509.00  0.000  0.000
 2510.00  0.000  0.000
 2511.00  0.000  0.000
 2512.00  0.000  0.000
 2513.00  0.000  0.000
 2514.00  0.000  0.000
 2515.00  0.000  0.000
 2516.00  0.000  0.000
 2517.00  0.000  0.000
 2518.00  0.000  0.000
 2519.00  0.000  0.000
 2520.00  0.000  0.000
 2521.00  0.000  0.000
 2522.00  0.000  0.000
 2523.00  0.000  0.000
 2524.00  0.000  0.000
 2525.00  0.000  0.000
 2526.00  0.000  0.000
 2527.00  0.000  0.000
 2528.00  0.000  0.000
 2529.00  0.000  0.000
 2530.00  0.000  0.000
 2531.00  0.000  0.000
 2532.00  0.000  0.000
 2533.00  0.000  0.000
 2534.00  0.000  0.000
 2535.00  0.000  0.000
 2536.00  0.000  0.000
 2537.00  0.000  0.000
 2538.00  0.000  0.000
 2539.00  0.000  0.000
 2540.00  0.000  0.000
 2541.00  0.000  0.000
 2542.00  0.000  0.000
 2543.00  0.000  0.000
 2544.00  0.000  0.000
 2545.00  0.000  0.000
 2546.00  0.000  0.000
 2547.00  0.000  0.000
 2548.00  0.000  0.000
 2549.00  0.000  0.000
 2550.00  0.000  0.000
 2551.00  0.000  0.000
 2552.00  0.000  0.000
 2553.00  0.000  0.000
 2554.00  0.000  0.000
 2555.00  0.000  0.000
 2556.00  0.000  0.000
 2557.00  0.000  0.000
 2558.00  0.000  0.000
 2559.00  0.000  0.000
 2560.00  0.000  0.000
 2561.00  0.000  0.000
 2562.00  0.000  0.000
 2563.00  0.000  0.000
 2564.00  0.000  0.000
 2565.00  0.000  0.000
 2566.00  0.000  0.000
 2567.00  0.000  0.000
 2568.00  0.000  0.000
 2569.00  0.000  0.000
 2570.00  0.000  0.000
 2571.00  0.000  0.000
 2572.00  0.000  0.000
 2573.00  0.000  0.000
 2574.00  0.000  0.000
 2575.00  0.000  0.000
 2576.00  0.000  0.000
 2577.00  0.000  0.000
 2578.00  0.000  0.000
 2579.00  0.000  0.000
 2580.00  0.000  0.000
 2581.00  0.000  0.000
 2582.00  0.000  0.000
 2583.00  0.000  0.000
 2584.00  0.000  0.000
 2585.00  0.000  0.000
 2586.00  0.000  0.000
 2587.00  0.000  0.000
 2588.00  0.000  0.000
 2589.00  0.000  0.000
 2590.00  0.000  0.000
 2591.00  0.000  0.000
 2592.00  0.000  0.000
 2593.00  0.000  0.000
 2594.00  0.000  0.000
 2595.00  0.000  0.000
 2596.00  0.000  0.000
 2597.00  0.000  0.000
 2598.00  0.000  0.000
 2599.00  0.000  0.000
 2600.00  0.000  0.000
 2601.00  0.000  0.000
 2602.00  0.000  0.000
 2603.00  0.000  0.000
 2604.00  0.000  0.000
 2605.00  0.000  0.000
 2606.00  0.000  0.000
 2607.00  0.000  0.000
 2608.00  0.000  0.000
 2609.00  0.000  0.000
 2610.00  0.000  0.000
 2611.00  0.000  0.000
 2612.00  0.000  0.000
 2613.00  0.000  0.000
 2614.00  0.000  0.000
 2615.00  0.000  0.000
 2616.00  0.000  0.000
 2617.00  0.000  0.000
 2618.00  0.000  0.000
 2619.00  0.000  0.000
 2620.00  0.000  0.000
 2621.00  0.000  0.000
 2622.00  0.000  0.000
 2623.00  0.000  0.000
 2624.00  0.000  0.000
 2625.00  0.000  0.000
 2626.00  0.000  0.000
 2627.00  0.000  0.000
 2628.00  0.000  0.000
 2629.00  0.000  0.000
 2630.00  0.000  0.000
 2631.00  0.000  0.000
 2632.00  0.000  0.000
 2633.00  0.000  0.000
 2634.00  0.000  0.000
 2635.00  0.000  0.000
 2636.00  0.000  0.000
 2637.00  0.000  0.000
 2638.00  0.000  0.000
 2639.00  0.000  0.000
 2640.00  0.000  0.000
 2641.00  0.000  0.000
 2642.00  0.000  0.000
 2643.00  0.000  0.000
 2644.00  0.000  0.000
 2645.00  0.000  0.000
 2646.00  0.000  0.000
 2647.00  0.000  0.000
 2648.00  0.000  0.000
 2649.00  0.000  0.000
 2650.00  0.000  0.000
 2651.00  0.000  0.000
 2652.00  0.000  0.000
 2653.00  0.000  0.000
 2654.00  0.000  0.000
 2655.00  0.000  0.000
 2656.00  0.000  0.000
 2657.00  0.000  0.000
 2658.00  0.000  0.000
 2659.00  0.000  0.000
 2660.00  0.000  0.000
 2661.00  0.000  0.000
 2662.00  0.000  0.000
 2663.00  0.000  0.000
 2664.00  0.000  0.000
 2665.00  0.000  0.000
 2666.00  0.000  0.000
 2667.00  0.000  0.000
 2668.00  0.000  0.000
 2669.00  0.000  0.000
 2670.00  0.000  0.000
 2671.00  0.000  0.000
 2672.00  0.000  0.000
 2673.00  0.000  0.000
 2674.00  0.000  0.000
 2675.00  0.000  0.000
 2676.00  0.000  0.000
 2677.00  0.000  0.000
 2678.00  0.000  0.000
 2679.00  0.000  0.000
 2680.00  0.000  0.000
 2681.00  0.000  0.000
 2682.00  0.000  0.000
 2683.00  0.000  0.000
 2684.00  0.000  0.000
 2685.00  0.000  0.000
 2686.00  0.000  0.000
 2687.00  0.000  0.000
 2688.00  0.000  0.000
 2689.00  0.000  0.000
 2690.00  0.000  0.000
 2691.00  0.000  0.000
 2692.00  0.000  0.000
 2693.00  0.000  0.000
 2694.00  0.000  0.000
 2695.00  0.000  0.000
 2696.00  0.000  0.000
 2697.00  0.000  0.000
 2698.00  0.000  0.000
 2699.00  0.000  0.000
 2700.00  0.000  0.000
 2701.00  0.000  0.000
 2702.00  0.000  0.000
 2703.00  0.000  0.000
 2704.00  0.000  0.000
 2705.00  0.000  0.000
 2706.00  0.000  0.000
 2707.00  0.000  0.000
 2708.00  0.000  0.000
 2709.00  0.000  0.000
 2710.00  0.000  0.000
 2711.00  0.000  0.000
 2712.00  0.000  0.000
 2713.00  0.000  0.000
 2714.00  0.000  0.000
 2715.00  0.000  0.000
 2716.00  0.000  0.000
 2717.00  0.000  0.000
 2718.00  0.000  0.000
 2719.00  0.000  0.001
 2720.00  0.000  0.001
 2721.00  0.000  0.001
 2722.00  0.000  0.001
 2723.00  0.000  0.001
 2724.00  0.000  0.001
 2725.00  0.000  0.001
 2726.00  0.000  0.001
 2727.00  0.000  0.001
 2728.00  0.000  0.001
 2729.00  0.000  0.001
 2730.00  0.000  0.001
 2731.00  0.000  0.001
 2732.00  0.000  0.001
 2733.00  0.000  0.001
 2734.00  0.000  0.001
 2735.00  0.000  0.001
 2736.00  0.000  0.001
 2737.00  0.000  0.001
 2738.00  0.000  0.001
 2739.00  0.000  0.001
 2740.00  0.000  0.001
 2741.00  0.000  0.001
 2742.00  0.000  0.001
 2743.00  0.000  0.001
 2744.00  0.000  0.001
 2745.00  0.000  0.001
 2746.00  0.000  0.001
 2747.00  0.000  0.001
 2748.00  0.000  0.001
 2749.00  0.000  0.001
 2750.00  0.000  0.001
 2751.00  0.000  0.001
 2752.00  0.000  0.001
 2753.00  0.000  0.001
 2754.00  0.000  0.001
 2755.00  0.000  0.001
 2756.00  0.000  0.001
 2757.00  0.000  0.001
 2758.00  0.000  0.001
 2759.00  0.000  0.001
 2760.00  0.000  0.001
 2761.00  0.000  0.001
 2762.00  0.000  0.001
 2763.00  0.000  0.001
 2764.00  0.000  0.001
 2765.00  0.000  0.001
 2766.00  0.000  0.001
 2767.00  0.000  0.001
 2768.00  0.000  0.001
 2769.00  0.000  0.001
 2770.00  0.000  0.001
 2771.00  0.000  0.001
 2772.00  0.000  0.001
 2773.00  0.000  0.001
 2774.00  0.000  0.001
 2775.00  0.000  0.001
 2776.00  0.000  0.001
 2777.00  0.000  0.001
 2778.00  0.000  0.001
 2779.00  0.000  0.001
 2780.00  0.000  0.001
 2781.00  0.000  0.001
 2782.00  0.000  0.001
 2783.00  0.000  0.001
 2784.00  0.000  0.001
 2785.00  0.000  0.001
 2786.00  0.000  0.001
 2787.00  0.000  0.001
 2788.00  0.000  0.001
 2789.00  0.000  0.001
 2790.00  0.000  0.001
 2791.00  0.000  0.001
 2792.00  0.000  0.001
 2793.00  0.000  0.001
 2794.00  0.000  0.001
 2795.00  0.000  0.001
 2796.00  0.000  0.001
 2797.00  0.000  0.001
 2798.00  0.000  0.001
 2799.00  0.000  0.001
 2800.00  0.000  0.001
 2801.00  0.000  0.001
 2802.00  0.000  0.001
 2803.00  0.000  0.001
 2804.00  0.000  0.001
 2805.00  0.000  0.001
 2806.00  0.000  0.001
 2807.00  0.000  0.001
 2808.00  0.000  0.001
 2809.00  0.000  0.001
 2810.00  0.000  0.001
 2811.00  0.000  0.001
 2812.00  0.000  0.001
 2813.00  0.000  0.001
 2814.00  0.000  0.001
 2815.00  0.000  0.001
 2816.00  0.000  0.002
 2817.00  0.000  0.002
 2818.00  0.000  0.002
 2819.00  0.000  0.002
 2820.00  0.000  0.002
 2821.00  0.000  0.002
 2822.00  0.000  0.002
 2823.00  0.000  0.002
 2824.00  0.000  0.002
 2825.00  0.000  0.002
 2826.00  0.000  0.002
 2827.00  0.000  0.002
 2828.00  0.000  0.002
 2829.00  0.000  0.002
 2830.00  0.000  0.002
 2831.00  0.000  0.002
 2832.00  0.000  0.002
 2833.00  0.000  0.002
 2834.00  0.000  0.002
 2835.00  0.000  0.002
 2836.00  0.000  0.002
 2837.00  0.000  0.002
 2838.00  0.000  0.002
 2839.00  0.000  0.002
 2840.00  0.000  0.002
 2841.00  0.000  0.002
 2842.00  0.000  0.002
 2843.00  0.000  0.002
 2844.00  0.000  0.002
 2845.00  0.000  0.003
 2846.00  0.000  0.003
 2847.00  0.000  0.003
 2848.00  0.000  0.003
 2849.00  0.000  0.003
 2850.00  0.000  0.003
 2851.00  0.000  0.003
 2852.00  0.000  0.003
 2853.00  0.000  0.003
 2854.00  0.000  0.003
 2855.00  0.000  0.003
 2856.00  0.000  0.003
 2857.00  0.000  0.003
 2858.00  0.000  0.003
 2859.00  0.000  0.003
 2860.00  0.000  0.003
 2861.00  0.000  0.004
 2862.00  0.000  0.004
 2863.00  0.000  0.004
 2864.00  0.000  0.004
 2865.00  0.000  0.004
 2866.00  0.000  0.004
 2867.00  0.000  0.004
 2868.00  0.000  0.004
 2869.00  0.000  0.004
 2870.00  0.000  0.004
 2871.00  0.000  0.005
 2872.00  0.000  0.005
 2873.00  0.000  0.005
 2874.00  0.000  0.005
 2875.00  0.000  0.005
 2876.00  0.000  0.005
 2877.00  0.000  0.005
 2878.00  0.000  0.006
 2879.00  0.000  0.006
 2880.00  0.000  0.006
 2881.00  0.000  0.006
 2882.00  0.000  0.006
 2883.00  0.000  0.006
 2884.00  0.000  0.007
 2885.00  0.000  0.007
 2886.00  0.000  0.007
 2887.00  0.000  0.007
 2888.00  0.001  0.008
 2889.00  0.001  0.008
 2890.00  0.001  0.008
 2891.00  0.001  0.008
 2892.00  0.001  0.009
 2893.00  0.001  0.009
 2894.00  0.001  0.009
 2895.00  0.001  0.010
 2896.00  0.001  0.010
 2897.00  0.001  0.011
 2898.00  0.001  0.011
 2899.00  0.001  0.012
 2900.00  0.001  0.012
 2901.00  0.001  0.013
 2902.00  0.001  0.013
 2903.00  0.001  0.014
 2904.00  0.001  0.014
 2905.00  0.001  0.015
 2906.00  0.001  0.016
 2907.00  0.001  0.017
 2908.00  0.001  0.018
 2909.00  0.001  0.019
 2910.00  0.001  0.020
 2911.00  0.001  0.021
 2912.00  0.001  0.022
 2913.00  0.002  0.023
 2914.00  0.002  0.025
 2915.00  0.002  0.026
 2916.00  0.002  0.028
 2917.00  0.002  0.030
 2918.00  0.002  0.032
 2919.00  0.002  0.035
 2920.00  0.002  0.037
 2921.00  0.003  0.040
 2922.00  0.003  0.044
 2923.00  0.003  0.048
 2924.00  0.003  0.052
 2925.00  0.004  0.057
 2926.00  0.004  0.062
 2927.00  0.005  0.069
 2928.00  0.005  0.076
 2929.00  0.006  0.085
 2930.00  0.006  0.095
 2931.00  0.007  0.107
 2932.00  0.008  0.122
 2933.00  0.010  0.140
 2934.00  0.011  0.161
 2935.00  0.013  0.187
 2936.00  0.016  0.219
 2937.00  0.019  0.260
 2938.00  0.023  0.311
 2939.00  0.028  0.376
 2940.00  0.034  0.458
 2941.00  0.041  0.559
 2942.00  0.049  0.679
 2943.00  0.055  0.809
 2944.00  0.059  0.927
 2945.00  0.058  1.000
 2946.00  0.053  0.999
 2947.00  0.046  0.925
 2948.00  0.038  0.807
 2949.00  0.031  0.677
 2950.00  0.026  0.557
 2951.00  0.021  0.456
 2952.00  0.018  0.375
 2953.00  0.015  0.310
 2954.00  0.012  0.259
 2955.00  0.011  0.219
 2956.00  0.009  0.186
 2957.00  0.008  0.160
 2958.00  0.007  0.139
 2959.00  0.006  0.122
 2960.00  0.005  0.107
 2961.00  0.005  0.095
 2962.00  0.004  0.085
 2963.00  0.004  0.076
 2964.00  0.004  0.069
 2965.00  0.003  0.062
 2966.00  0.003  0.057
 2967.00  0.003  0.052
 2968.00  0.003  0.047
 2969.00  0.002  0.044
 2970.00  0.002  0.040
 2971.00  0.002  0.037
 2972.00  0.002  0.035
 2973.00  0.002  0.032
 2974.00  0.002  0.030
 2975.00  0.002  0.028
 2976.00  0.001  0.026
 2977.00  0.001  0.025
 2978.00  0.001  0.023
 2979.00  0.001  0.022
 2980.00  0.001  0.021
 2981.00  0.001  0.020
 2982.00  0.001  0.019
 2983.00  0.001  0.018
 2984.00  0.001  0.017
 2985.00  0.001  0.016
 2986.00  0.001  0.015
 2987.00  0.001  0.014
 2988.00  0.001  0.014
 2989.00  0.001  0.013
 2990.00  0.001  0.013
 2991.00  0.001  0.012
 2992.00  0.001  0.012
 2993.00  0.001  0.011
 2994.00  0.001  0.011
 2995.00  0.001  0.010
 2996.00  0.001  0.010
 2997.00  0.001  0.009
 2998.00  0.001  0.009
 2999.00  0.001  0.009
 3000.00  0.001  0.008
 3001.00  0.000  0.008
 3002.00  0.000  0.008
 3003.00  0.000  0.008
 3004.00  0.000  0.007
 3005.00  0.000  0.007
 3006.00  0.000  0.007
 3007.00  0.000  0.007
 3008.00  0.000  0.006
 3009.00  0.000  0.006
 3010.00  0.000  0.006
 3011.00  0.000  0.006
 3012.00  0.000  0.006
 3013.00  0.000  0.006
 3014.00  0.000  0.005
 3015.00  0.000  0.005
 3016.00  0.000  0.005
 3017.00  0.000  0.005
 3018.00  0.000  0.005
 3019.00  0.000  0.005
 3020.00  0.000  0.005
 3021.00  0.000  0.004
 3022.00  0.000  0.004
 3023.00  0.000  0.004
 3024.00  0.000  0.004
 3025.00  0.000  0.004
 3026.00  0.000  0.004
 3027.00  0.000  0.004
 3028.00  0.000  0.004
 3029.00  0.000  0.004
 3030.00  0.000  0.004
 3031.00  0.000  0.003
 3032.00  0.000  0.003
 3033.00  0.000  0.003
 3034.00  0.000  0.003
 3035.00  0.000  0.003
 3036.00  0.000  0.003
 3037.00  0.000  0.003
 3038.00  0.000  0.003
 3039.00  0.000  0.003
 3040.00  0.000  0.003
 3041.00  0.000  0.003
 3042.00  0.000  0.003
 3043.00  0.000  0.003
 3044.00  0.000  0.003
 3045.00  0.000  0.003
 3046.00  0.000  0.003
 3047.00  0.000  0.002
 3048.00  0.000  0.002
 3049.00  0.000  0.002
 3050.00  0.000  0.002
 3051.00  0.000  0.002
 3052.00  0.000  0.002
 3053.00  0.000  0.002
 3054.00  0.000  0.002
 3055.00  0.000  0.002
 3056.00  0.000  0.002
 3057.00  0.000  0.002
 3058.00  0.000  0.002
 3059.00  0.000  0.002
 3060.00  0.000  0.002
 3061.00  0.000  0.002
 3062.00  0.000  0.002
 3063.00  0.000  0.002
 3064.00  0.000  0.002
 3065.00  0.000  0.002
 3066.00  0.000  0.002
 3067.00  0.000  0.002
 3068.00  0.000  0.002
 3069.00  0.000  0.002
 3070.00  0.000  0.002
 3071.00  0.000  0.002
 3072.00  0.000  0.002
 3073.00  0.000  0.002
 3074.00  0.000  0.002
 3075.00  0.000  0.002
 3076.00  0.000  0.001
 3077.00  0.000  0.001
 3078.00  0.000  0.001
 3079.00  0.000  0.001
 3080.00  0.000  0.001
 3081.00  0.000  0.001
 3082.00  0.000  0.001
 3083.00  0.000  0.001
 3084.00  0.000  0.001
 3085.00  0.000  0.001
 3086.00  0.000  0.001
 3087.00  0.000  0.001
 3088.00  0.000  0.001
 3089.00  0.000  0.001
 3090.00  0.000  0.001
 3091.00  0.000  0.001
 3092.00  0.000  0.001
 3093.00  0.000  0.001
 3094.00  0.000  0.001
 3095.00  0.000  0.001
 3096.00  0.000  0.001
 3097.00  0.000  0.001
 3098.00  0.000  0.001
 3099.00  0.000  0.001
 3100.00  0.000  0.001
 3101.00  0.000  0.001
 3102.00  0.000  0.001
 3103.00  0.000  0.001
 3104.00  0.000  0.001
 3105.00  0.000  0.001
 3106.00  0.000  0.001
 3107.00  0.000  0.001
 3108.00  0.000  0.001
 3109.00  0.000  0.001
 3110.00  0.000  0.001
 3111.00  0.000  0.001
 3112.00  0.000  0.001
 3113.00  0.000  0.001
 3114.00  0.000  0.001
 3115.00  0.000  0.001
 3116.00  0.000  0.001
 3117.00  0.000  0.001
 3118.00  0.000  0.001
 3119.00  0.000  0.001
 3120.00  0.000  0.001
 3121.00  0.000  0.001
 3122.00  0.000  0.001
 3123.00  0.000  0.001
 3124.00  0.000  0.001
 3125.00  0.000  0.001
 3126.00  0.000  0.001
 3127.00  0.000  0.001
 3128.00  0.000  0.001
 3129.00  0.000  0.001
 3130.00  0.000  0.001
 3131.00  0.000  0.001
 3132.00  0.000  0.001
 3133.00  0.000  0.001
 3134.00  0.000  0.001
 3135.00  0.000  0.001
 3136.00  0.000  0.001
 3137.00  0.000  0.001
 3138.00  0.000  0.001
 3139.00  0.000  0.001
 3140.00  0.000  0.001
 3141.00  0.000  0.001
 3142.00  0.000  0.001
 3143.00  0.000  0.001
 3144.00  0.000  0.001
 3145.00  0.000  0.001
 3146.00  0.000  0.001
 3147.00  0.000  0.001
 3148.00  0.000  0.001
 3149.00  0.000  0.001
 3150.00  0.000  0.001
 3151.00  0.000  0.001
 3152.00  0.000  0.001
 3153.00  0.000  0.001
 3154.00  0.000  0.001
 3155.00  0.000  0.001
 3156.00  0.000  0.001
 3157.00  0.000  0.001
 3158.00  0.000  0.001
 3159.00  0.000  0.001
 3160.00  0.000  0.001
 3161.00  0.000  0.001
 3162.00  0.000  0.001
 3163.00  0.000  0.001
 3164.00  0.000  0.001
 3165.00  0.000  0.001
 3166.00  0.000  0.001
 3167.00  0.000  0.001
 3168.00  0.000  0.001
 3169.00  0.000  0.001
 3170.00  0.000  0.001
 3171.00  0.000  0.001
 3172.00  0.000  0.001
 3173.00  0.000  0.001
 3174.00  0.000  0.001
 3175.00  0.000  0.000
 3176.00  0.000  0.000
 3177.00  0.000  0.000
 3178.00  0.000  0.000
 3179.00  0.000  0.000
 3180.00  0.000  0.000
 3181.00  0.000  0.000
 3182.00  0.000  0.000
 3183.00  0.000  0.000
 3184.00  0.000  0.000
 3185.00  0.000  0.000
 3186.00  0.000  0.000
 3187.00  0.000  0.000
 3188.00  0.000  0.000
 3189.00  0.000  0.000
 3190.00  0.000  0.000
 3191.00  0.000  0.000
 3192.00  0.000  0.000
 3193.00  0.000  0.000
 3194.00  0.000  0.000
 3195.00  0.000  0.000
 3196.00  0.000  0.000
 3197.00  0.000  0.000
 3198.00  0.000  0.000
 3199.00  0.000  0.000
 3200.00  0.000  0.000
 3201.00  0.000  0.000
 3202.00  0.000  0.000
 3203.00  0.000  0.000
 3204.00  0.000  0.000
 3205.00  0.000  0.000
 3206.00  0.000  0.000
 3207.00  0.000  0.000
 3208.00  0.000  0.000
 3209.00  0.000  0.000
 3210.00  0.000  0.000
 3211.00  0.000  0.000
 3212.00  0.000  0.000
 3213.00  0.000  0.000
 3214.00  0.000  0.000
 3215.00  0.000  0.000
 3216.00  0.000  0.000
 3217.00  0.000  0.000
 3218.00  0.000  0.000
 3219.00  0.000  0.000
 3220.00  0.000  0.000
 3221.00  0.000  0.000
 3222.00  0.000  0.000
 3223.00  0.000  0.000
 3224.00  0.000  0.000
 3225.00  0.000  0.000
 3226.00  0.000  0.000
 3227.00  0.000  0.000
 3228.00  0.000  0.000
 3229.00  0.000  0.000
 3230.00  0.000  0.000
 3231.00  0.000  0.000
 3232.00  0.000  0.000
 3233.00  0.000  0.000
 3234.00  0.000  0.000
 3235.00  0.000  0.000
 3236.00  0.000  0.000
 3237.00  0.000  0.000
 3238.00  0.000  0.000
 3239.00  0.000  0.000
 3240.00  0.000  0.000
 3241.00  0.000  0.000
 3242.00  0.000  0.000
 3243.00  0.000  0.000
 3244.00  0.000  0.000
 3245.00  0.000  0.000
 3246.00  0.000  0.000
 3247.00  0.000  0.000
 3248.00  0.000  0.000
 3249.00  0.000  0.000
 3250.00  0.000  0.000
 3251.00  0.000  0.000
 3252.00  0.000  0.000
 3253.00  0.000  0.000
 3254.00  0.000  0.000
 3255.00  0.000  0.000
 3256.00  0.000  0.000
 3257.00  0.000  0.000
 3258.00  0.000  0.000
 3259.00  0.000  0.000
 3260.00  0.000  0.000
 3261.00  0.000  0.000
 3262.00  0.000  0.000
 3263.00  0.000  0.000
 3264.00  0.000  0.000
 3265.00  0.000  0.000
 3266.00  0.000  0.000
 3267.00  0.000  0.000
 3268.00  0.000  0.000
 3269.00  0.000  0.000
 3270.00  0.000  0.000
 3271.00  0.000  0.000
 3272.00  0.000  0.000
 3273.00  0.000  0.000
 3274.00  0.000  0.000
 3275.00  0.000  0.000
 3276.00  0.000  0.000
 3277.00  0.000  0.000
 3278.00  0.000  0.000
 3279.00  0.000  0.000
 3280.00  0.000  0.000
 3281.00  0.000  0.000
 3282.00  0.000  0.000
 3283.00  0.000  0.000
 3284.00  0.000  0.000
 3285.00  0.000  0.000
 3286.00  0.000  0.000
 3287.00  0.000  0.000
 3288.00  0.000  0.000
 3289.00  0.000  0.000
 3290.00  0.000  0.000
 3291.00  0.000  0.000
 3292.00  0.000  0.000
 3293.00  0.000  0.000
 3294.00  0.000  0.000
 3295.00  0.000  0.000
 3296.00  0.000  0.000
 3297.00  0.000  0.000
 3298.00  0.000  0.000
 3299.00  0.000  0.000
 3300.00  0.000  0.000
 3301.00  0.000  0.000
 3302.00  0.000  0.000
 3303.00  0.000  0.000
 3304.00  0.000  0.000
 3305.00  0.000  0.000
 3306.00  0.000  0.000
 3307.00  0.000  0.000
 3308.00  0.000  0.000
 3309.00  0.000  0.000
 3310.00  0.000  0.000
 3311.00  0.000  0.000
 3312.00  0.000  0.000
 3313.00  0.000  0.000
 3314.00  0.000  0.000
 3315.00  0.000  0.000
 3316.00  0.000  0.000
 3317.00  0.000  0.000
 3318.00  0.000  0.000
 3319.00  0.000  0.000
 3320.00  0.000  0.000
 3321.00  0.000  0.000
 3322.00  0.000  0.000
 3323.00  0.000  0.000
 3324.00  0.000  0.000
 3325.00  0.000  0.000
 3326.00  0.000  0.000
 3327.00  0.000  0.000
 3328.00  0.000  0.000
 3329.00  0.000  0.000
 3330.00  0.000  0.000
 3331.00  0.000  0.000
 3332.00  0.000  0.000
 3333.00  0.000  0.000
 3334.00  0.000  0.000
 3335.00  0.000  0.000
 3336.00  0.000  0.000
 3337.00  0.000  0.000
 3338.00  0.000  0.000
 3339.00  0.000  0.000
 3340.00  0.000  0.000
 3341.00  0.000  0.000
 3342.00  0.000  0.000
 3343.00  0.000  0.000
 3344.00  0.000  0.000
 3345.00  0.000  0.000
 3346.00  0.000  0.000
 3347.00  0.000  0.000
 3348.00  0.000  0.000
 3349.00  0.000  0.000
 3350.00  0.000  0.000
 3351.00  0.000  0.000
 3352.00  0.000  0.000
 3353.00  0.000  0.000
 3354.00  0.000  0.000
 3355.00  0.000  0.000
 3356.00  0.000  0.000
 3357.00  0.000  0.000
 3358.00  0.000  0.000
 3359.00  0.000  0.000
 3360.00  0.000  0.000
 3361.00  0.000  0.000
 3362.00  0.000  0.000
 3363.00  0.000  0.000
 3364.00  0.000  0.000
 3365.00  0.000  0.000
 3366.00  0.000  0.000
 3367.00  0.000  0.000
 3368.00  0.000  0.000
 3369.00  0.000  0.000
 3370.00  0.000  0.000
 3371.00  0.000  0.000
 3372.00  0.000  0.000
 3373.00  0.000  0.000
 3374.00  0.000  0.000
 3375.00  0.000  0.000
 3376.00  0.000  0.000
 3377.00  0.000  0.000
 3378.00  0.000  0.000
 3379.00  0.000  0.000
 3380.00  0.000  0.000
 3381.00  0.000  0.000
 3382.00  0.000  0.000
 3383.00  0.000  0.000
 3384.00  0.000  0.000
 3385.00  0.000  0.000
 3386.00  0.000  0.000
 3387.00  0.000  0.000
 3388.00  0.000  0.000
 3389.00  0.000  0.000
 3390.00  0.000  0.000
 3391.00  0.000  0.000
 3392.00  0.000  0.000
 3393.00  0.000  0.000
 3394.00  0.000  0.000
 3395.00  0.000  0.000
 3396.00  0.000  0.000
 3397.00  0.000  0.000
 3398.00  0.000  0.000
 3399.00  0.000  0.000
 3400.00  0.000  0.000
 3401.00  0.000  0.000
 3402.00  0.000  0.000
 3403.00  0.000  0.000
 3404.00  0.000  0.000
 3405.00  0.000  0.000
 3406.00  0.000  0.000
 3407.00  0.000  0.000
 3408.00  0.000  0.000
 3409.00  0.000  0.000
 3410.00  0.000  0.000
 3411.00  0.000  0.000
 3412.00  0.000  0.000
 3413.00  0.000  0.000
 3414.00  0.000  0.000
 3415.00  0.000  0.000
 3416.00  0.000  0.000
 3417.00  0.000  0.000
 3418.00  0.000  0.000
 3419.00  0.000  0.000
 3420.00  0.000  0.000
 3421.00  0.000  0.000
 3422.00  0.000  0.000
 3423.00  0.000  0.000
 3424.00  0.000  0.000
 3425.00  0.000  0.000
 3426.00  0.000  0.000
 3427.00  0.000  0.000
 3428.00  0.000  0.000
 3429.00  0.000  0.000
 3430.00  0.000  0.000
 3431.00  0.000  0.000
 3432.00  0.000  0.000
 3433.00  0.000  0.000
 3434.00  0.000  0.000
 3435.00  0.000  0.000
 3436.00  0.000  0.000
 3437.00  0.000  0.000
 3438.00  0.000  0.000
 3439.00  0.000  0.000
 3440.00  0.000  0.000
 3441.00  0.000  0.000
 3442.00  0.000  0.000
 3443.00  0.000  0.000
 3444.00  0.000  0.000
 3445.00  0.000  0.000
 3446.00  0.000  0.000
 3447.00  0.000  0.000
 3448.00  0.000  0.000
 3449.00  0.000  0.000
 3450.00  0.000  0.000
 3451.00  0.000  0.000
 3452.00  0.000  0.000
 3453.00  0.000  0.000
 3454.00  0.000  0.000
 3455.00  0.000  0.000
 3456.00  0.000  0.000
 3457.00  0.000  0.000
 3458.00  0.000  0.000
 3459.00  0.000  0.000
 3460.00  0.000  0.000
 3461.00  0.000  0.000
 3462.00  0.000  0.000
 3463.00  0.000  0.000
 3464.00  0.000  0.000
 3465.00  0.000  0.000
 3466.00  0.000  0.000
 3467.00  0.000  0.000
 3468.00  0.000  0.000
 3469.00  0.000  0.000
 3470.00  0.000  0.000
 3471.00  0.000  0.000
 3472.00  0.000  0.000
 3473.00  0.000  0.000
 3474.00  0.000  0.000
 3475.00  0.000  0.000
 3476.00  0.000  0.000
 3477.00  0.000  0.000
 3478.00  0.000  0.000
 3479.00  0.000  0.000
 3480.00  0.000  0.000
 3481.00  0.000  0.000
 3482.00  0.000  0.000
 3483.00  0.000  0.000
 3484.00  0.000  0.000
 3485.00  0.000  0.000
 3486.00  0.000  0.000
 3487.00  0.000  0.000
 3488.00  0.000  0.000
 3489.00  0.000  0.000
 3490.00  0.000  0.000
 3491.00  0.000  0.000
 3492.00  0.000  0.000
 3493.00  0.000  0.000
 3494.00  0.000  0.000
 3495.00  0.000  0.000
 3496.00  0.000  0.000
 3497.00  0.000  0.000
 3498.00  0.000  0.000
 3499.00  0.000  0.000
 3500.00  0.000  0.000
 3501.00  0.000  0.000
 3502.00  0.000  0.000
 3503.00  0.000  0.000
 3504.00  0.000  0.000
 3505.00  0.000  0.000
 3506.00  0.000  0.000
 3507.00  0.000  0.000
 3508.00  0.000  0.000
 3509.00  0.000  0.000
 3510.00  0.000  0.000
 3511.00  0.000  0.000
 3512.00  0.000  0.000
 3513.00  0.000  0.000
 3514.00  0.000  0.000
 3515.00  0.000  0.000
 3516.00  0.000  0.000
 3517.00  0.000  0.000
 3518.00  0.000  0.000
 3519.00  0.000  0.000
 3520.00  0.000  0.000
 3521.00  0.000  0.000
 3522.00  0.000  0.000
 3523.00  0.000  0.000
 3524.00  0.000  0.000
 3525.00  0.000  0.000
 3526.00  0.000  0.000
 3527.00  0.000  0.000
 3528.00  0.000  0.000
 3529.00  0.000  0.000
 3530.00  0.000  0.000
 3531.00  0.000  0.000
 3532.00  0.000  0.000
 3533.00  0.000  0.000
 3534.00  0.000  0.000
 3535.00  0.000  0.000
 3536.00  0.000  0.000
 3537.00  0.000  0.000
 3538.00  0.000  0.000
 3539.00  0.000  0.000
 3540.00  0.000  0.000
 3541.00  0.000  0.000
 3542.00  0.000  0.000
 3543.00  0.000  0.000
 3544.00  0.000  0.000
 3545.00  0.000  0.000
 3546.00  0.000  0.000
 3547.00  0.000  0.000
 3548.00  0.000  0.000
 3549.00  0.000  0.000
 3550.00  0.000  0.000
 3551.00  0.000  0.000
 3552.00  0.000  0.000
 3553.00  0.000  0.000
 3554.00  0.000  0.000
 3555.00  0.000  0.000
 3556.00  0.000  0.000
 3557.00  0.000  0.000
 3558.00  0.000  0.000
 3559.00  0.000  0.000
 3560.00  0.000  0.000
 3561.00  0.000  0.000
 3562.00  0.000  0.000
 3563.00  0.000  0.000
 3564.00  0.000  0.000
 3565.00  0.000  0.000
 3566.00  0.000  0.000
 3567.00  0.000  0.000
 3568.00  0.000  0.000
 3569.00  0.000  0.000
 3570.00  0.000  0.000
 3571.00  0.000  0.000
 3572.00  0.000  0.000
 3573.00  0.000  0.000
 3574.00  0.000  0.000
 3575.00  0.000  0.000
 3576.00  0.000  0.000
 3577.00  0.000  0.000
 3578.00  0.000  0.000
 3579.00  0.000  0.000
 3580.00  0.000  0.000
 3581.00  0.000  0.000
 3582.00  0.000  0.000
 3583.00  0.000  0.000
 3584.00  0.000  0.000
 3585.00  0.000  0.000
 3586.00  0.000  0.000
 3587.00  0.000  0.000
 3588.00  0.000  0.000
 3589.00  0.000  0.000
 3590.00  0.000  0.000
 3591.00  0.000  0.000
 3592.00  0.000  0.000
 3593.00  0.000  0.000
 3594.00  0.000  0.000
 3595.00  0.000  0.000
 3596.00  0.000  0.000
 3597.00  0.000  0.000
 3598.00  0.000  0.000
 3599.00  0.000  0.000
 3600.00  0.000  0.000
 3601.00  0.000  0.000
 3602.00  0.000  0.000
 3603.00  0.000  0.000
 3604.00  0.000  0.000
 3605.00  0.000  0.000
 3606.00  0.000  0.000
 3607.00  0.000  0.000
 3608.00  0.000  0.000
 3609.00  0.000  0.000
 3610.00  0.000  0.001
 3611.00  0.000  0.001
 3612.00  0.000  0.001
 3613.00  0.000  0.001
 3614.00  0.000  0.001
 3615.00  0.000  0.001
 3616.00  0.000  0.001
 3617.00  0.000  0.001
 3618.00  0.000  0.001
 3619.00  0.000  0.001
 3620.00  0.000  0.001
 3621.00  0.000  0.001
 3622.00  0.000  0.001
 3623.00  0.000  0.001
 3624.00  0.000  0.001
 3625.00  0.000  0.001
 3626.00  0.000  0.001
 3627.00  0.000  0.001
 3628.00  0.000  0.001
 3629.00  0.000  0.001
 3630.00  0.000  0.001
 3631.00  0.000  0.001
 3632.00  0.000  0.001
 3633.00  0.000  0.001
 3634.00  0.000  0.001
 3635.00  0.000  0.001
 3636.00  0.000  0.001
 3637.00  0.000  0.001
 3638.00  0.000  0.001
 3639.00  0.000  0.001
 3640.00  0.000  0.001
 3641.00  0.000  0.001
 3642.00  0.000  0.001
 3643.00  0.000  0.001
 3644.00  0.000  0.001
 3645.00  0.000  0.001
 3646.00  0.000  0.001
 3647.00  0.000  0.001
 3648.00  0.000  0.001
 3649.00  0.000  0.001
 3650.00  0.001  0.002
 3651.00  0.001  0.002
 3652.00  0.001  0.002
 3653.00  0.001  0.002
 3654.00  0.001  0.002
 3655.00  0.001  0.002
 3656.00  0.001  0.002
 3657.00  0.001  0.002
 3658.00  0.001  0.002
 3659.00  0.001  0.002
 3660.00  0.001  0.002
 3661.00  0.001  0.003
 3662.00  0.001  0.003
 3663.00  0.001  0.003
 3664.00  0.001  0.003
 3665.00  0.001  0.003
 3666.00  0.001  0.003
 3667.00  0.001  0.004
 3668.00  0.001  0.004
 3669.00  0.001  0.004
 3670.00  0.001  0.004
 3671.00  0.002  0.005
 3672.00  0.002  0.005
 3673.00  0.002  0.005
 3674.00  0.002  0.006
 3675.00  0.002  0.006
 3676.00  0.002  0.007
 3677.00  0.003  0.008
 3678.00  0.003  0.008
 3679.00  0.003  0.009
 3680.00  0.004  0.010
 3681.00  0.004  0.011
 3682.00  0.005  0.013
 3683.00  0.005  0.014
 3684.00  0.006  0.016
 3685.00  0.007  0.019
 3686.00  0.008  0.021
 3687.00  0.009  0.025
 3688.00  0.011  0.029
 3689.00  0.013  0.034
 3690.00  0.016  0.041
 3691.00  0.020  0.050
 3692.00  0.024  0.060
 3693.00  0.029  0.074
 3694.00  0.034  0.090
 3695.00  0.039  0.107
 3696.00  0.041  0.124
 3697.00  0.040  0.135
 3698.00  0.037  0.137
 3699.00  0.032  0.129
 3700.00  0.027  0.113
 3701.00  0.022  0.096
 3702.00  0.018  0.079
 3703.00  0.015  0.065
 3704.00  0.012  0.053
 3705.00  0.010  0.044
 3706.00  0.009  0.037
 3707.00  0.007  0.031
 3708.00  0.006  0.026
 3709.00  0.006  0.023
 3710.00  0.005  0.020
 3711.00  0.004  0.017
 3712.00  0.004  0.015
 3713.00  0.003  0.013
 3714.00  0.003  0.012
 3715.00  0.003  0.011
 3716.00  0.003  0.010
 3717.00  0.002  0.009
 3718.00  0.002  0.008
 3719.00  0.002  0.007
 3720.00  0.002  0.007
 3721.00  0.002  0.006
 3722.00  0.002  0.006
 3723.00  0.001  0.005
 3724.00  0.001  0.005
 3725.00  0.001  0.005
 3726.00  0.001  0.004
 3727.00  0.001  0.004
 3728.00  0.001  0.004
 3729.00  0.001  0.003
 3730.00  0.001  0.003
 3731.00  0.001  0.003
 3732.00  0.001  0.003
 3733.00  0.001  0.003
 3734.00  0.001  0.003
 3735.00  0.001  0.002
 3736.00  0.001  0.002
 3737.00  0.001  0.002
 3738.00  0.001  0.002
 3739.00  0.001  0.002
 3740.00  0.001  0.002
 3741.00  0.001  0.002
 3742.00  0.001  0.002
 3743.00  0.000  0.002
 3744.00  0.000  0.002
 3745.00  0.000  0.002
 3746.00  0.000  0.002
 3747.00  0.000  0.001
 3748.00  0.000  0.001
 3749.00  0.000  0.001
 3750.00  0.000  0.001
 3751.00  0.000  0.001
 3752.00  0.000  0.001
 3753.00  0.000  0.001
 3754.00  0.000  0.001
 3755.00  0.000  0.001
 3756.00  0.000  0.001
 3757.00  0.000  0.001
 3758.00  0.000  0.001
 3759.00  0.000  0.001
 3760.00  0.000  0.001
 3761.00  0.000  0.001
 3762.00  0.000  0.001
 3763.00  0.000  0.001
 3764.00  0.000  0.001
 3765.00  0.000  0.001
 3766.00  0.000  0.001
 3767.00  0.000  0.001
 3768.00  0.000  0.001
 3769.00  0.000  0.001
 3770.00  0.000  0.001
 3771.00  0.000  0.001
 3772.00  0.000  0.001
 3773.00  0.000  0.001
 3774.00  0.000  0.001
 3775.00  0.000  0.001
 3776.00  0.000  0.001
 3777.00  0.000  0.001
 3778.00  0.000  0.001
 3779.00  0.000  0.001
 3780.00  0.000  0.001
 3781.00  0.000  0.001
 3782.00  0.000  0.001
 3783.00  0.000  0.001
 3784.00  0.000  0.000
 3785.00  0.000  0.000
 3786.00  0.000  0.000
 3787.00  0.000  0.000
 3788.00  0.000  0.000
 3789.00  0.000  0.000
 3790.00  0.000  0.000
 3791.00  0.000  0.000
 3792.00  0.000  0.000
 3793.00  0.000  0.000
 3794.00  0.000  0.000
 3795.00  0.000  0.000
 3796.00  0.000  0.000
 3797.00  0.000  0.000
 3798.00  0.000  0.000
 3799.00  0.000  0.000
 3800.00  0.000  0.000
