#v / cm^-1	Intensity / AU
3185	2.44E-05
3184	2.48E-05
3183	2.51E-05
3182	2.55E-05
3181	2.59E-05
3180	2.64E-05
3179	2.68E-05
3178	2.73E-05
3177	2.78E-05
3176	2.83E-05
3175	2.89E-05
3174	2.95E-05
3173	3.01E-05
3172	3.08E-05
3171	3.15E-05
3170	3.23E-05
3169	3.31E-05
3168	3.40E-05
3167	3.49E-05
3166	3.59E-05
3165	3.70E-05
3164	3.82E-05
3163	3.94E-05
3162	4.08E-05
3161	4.23E-05
3160	4.40E-05
3159	4.57E-05
3158	4.77E-05
3157	4.99E-05
3156	5.22E-05
3155	5.49E-05
3154	5.78E-05
3153	6.11E-05
3152	6.48E-05
3151	6.90E-05
3150	7.37E-05
3149	7.91E-05
3148	8.53E-05
3147	9.25E-05
3146	0.000100941
3145	0.000110858
3144	0.000122651
3143	0.000136812
3142	0.000153985
3141	0.000175011
3140	0.000200964
3139	0.000233145
3138	0.000272942
3137	0.000321361
3136	0.000377904
3135	0.000438633
3134	0.000494456
3133	0.000533012
3132	0.000546515
3131	0.000539091
3130	0.000524063
3129	0.000515088
3128	0.000521324
3127	0.000547969
3126	0.000598239
3125	0.000674246
3124	0.000775829
3123	0.000896716
3122	0.001018635
3121	0.001108846
3120	0.001131854
3119	0.001074489
3118	0.000957322
3117	0.000816553
3116	0.000680649
3115	0.000563163
3114	0.000467024
3113	0.000390236
3112	0.000329353
3111	0.000280994
3110	0.00024233
3109	0.000211146
3108	0.000185751
3107	0.000164866
3106	0.000147525
3105	0.000132996
3104	0.000120718
3103	0.000110261
3102	0.000101287
3101	9.35E-05
3100	8.68E-05
3099	8.09E-05
3098	7.57E-05
3097	7.11E-05
3096	6.71E-05
3095	6.34E-05
3094	6.02E-05
3093	5.73E-05
3092	5.46E-05
3091	5.23E-05
3090	5.01E-05
3089	4.81E-05
3088	4.63E-05
3087	4.47E-05
3086	4.32E-05
3085	4.18E-05
3084	4.05E-05
3083	3.93E-05
3082	3.82E-05
3081	3.72E-05
3080	3.63E-05
3079	3.54E-05
3078	3.46E-05
3077	3.38E-05
3076	3.31E-05
3075	3.24E-05
3074	3.18E-05
3073	3.12E-05
3072	3.07E-05
3071	3.02E-05
3070	2.97E-05
3069	2.92E-05
3068	2.88E-05
3067	2.84E-05
3066	2.80E-05
3065	2.77E-05
3064	2.73E-05
3063	2.70E-05
3062	2.67E-05
3061	2.64E-05
3060	2.61E-05
3059	2.58E-05
3058	2.56E-05
3057	2.54E-05
3056	2.51E-05
3055	2.49E-05
3054	2.47E-05
3053	2.45E-05
3052	2.43E-05
3051	2.42E-05
3050	2.40E-05
3049	2.38E-05
3048	2.37E-05
3047	2.35E-05
3046	2.34E-05
3045	2.33E-05
3044	2.31E-05
3043	2.30E-05
3042	2.29E-05
3041	2.28E-05
3040	2.27E-05
3039	2.26E-05
3038	2.25E-05
3037	2.24E-05
3036	2.23E-05
3035	2.22E-05
3034	2.21E-05
3033	2.20E-05
3032	2.20E-05
3031	2.19E-05
3030	2.18E-05
3029	2.17E-05
3028	2.17E-05
3027	2.16E-05
3026	2.16E-05
3025	2.15E-05
3024	2.15E-05
3023	2.14E-05
3022	2.14E-05
3021	2.13E-05
3020	2.13E-05
3019	2.12E-05
3018	2.12E-05
3017	2.11E-05
3016	2.11E-05
3015	2.11E-05
3014	2.10E-05
3013	2.10E-05
3012	2.10E-05
3011	2.09E-05
3010	2.09E-05
3009	2.09E-05
3008	2.09E-05
3007	2.08E-05
3006	2.08E-05
3005	2.08E-05
3004	2.08E-05
3003	2.08E-05
3002	2.07E-05
3001	2.07E-05
3000	2.07E-05
2999	2.07E-05
2998	2.07E-05
2997	2.07E-05
2996	2.06E-05
2995	2.06E-05
2994	2.06E-05
2993	2.06E-05
2992	2.06E-05
2991	2.06E-05
2990	2.06E-05
2989	2.06E-05
2988	2.06E-05
2987	2.06E-05
2986	2.06E-05
2985	2.06E-05
2984	2.06E-05
2983	2.06E-05
2982	2.06E-05
2981	2.06E-05
2980	2.06E-05
2979	2.06E-05
2978	2.06E-05
2977	2.06E-05
2976	2.06E-05
2975	2.06E-05
2974	2.06E-05
2973	2.06E-05
2972	2.06E-05
2971	2.06E-05
2970	2.06E-05
2969	2.06E-05
2968	2.06E-05
2967	2.06E-05
2966	2.06E-05
2965	2.06E-05
2964	2.06E-05
2963	2.06E-05
2962	2.06E-05
2961	2.06E-05
2960	2.06E-05
2959	2.06E-05
2958	2.07E-05
2957	2.07E-05
2956	2.07E-05
2955	2.07E-05
2954	2.07E-05
2953	2.07E-05
2952	2.07E-05
2951	2.07E-05
2950	2.07E-05
2949	2.08E-05
2948	2.08E-05
2947	2.08E-05
2946	2.08E-05
2945	2.08E-05
2944	2.08E-05
2943	2.08E-05
2942	2.08E-05
2941	2.09E-05
2940	2.09E-05
2939	2.09E-05
2938	2.09E-05
2937	2.09E-05
2936	2.09E-05
2935	2.09E-05
2934	2.10E-05
2933	2.10E-05
2932	2.10E-05
2931	2.10E-05
2930	2.10E-05
2929	2.10E-05
2928	2.11E-05
2927	2.11E-05
2926	2.11E-05
2925	2.11E-05
2924	2.11E-05
2923	2.11E-05
2922	2.12E-05
2921	2.12E-05
2920	2.12E-05
2919	2.12E-05
2918	2.12E-05
2917	2.13E-05
2916	2.13E-05
2915	2.13E-05
2914	2.13E-05
2913	2.13E-05
2912	2.14E-05
2911	2.14E-05
2910	2.14E-05
2909	2.14E-05
2908	2.14E-05
2907	2.15E-05
2906	2.15E-05
2905	2.15E-05
2904	2.15E-05
2903	2.15E-05
2902	2.16E-05
2901	2.16E-05
2900	2.16E-05
2899	2.16E-05
2898	2.17E-05
2897	2.17E-05
2896	2.17E-05
2895	2.17E-05
2894	2.17E-05
2893	2.18E-05
2892	2.18E-05
2891	2.18E-05
2890	2.18E-05
2889	2.19E-05
2888	2.19E-05
2887	2.19E-05
2886	2.19E-05
2885	2.20E-05
2884	2.20E-05
2883	2.20E-05
2882	2.20E-05
2881	2.20E-05
2880	2.21E-05
2879	2.21E-05
2878	2.21E-05
2877	2.21E-05
2876	2.22E-05
2875	2.22E-05
2874	2.22E-05
2873	2.22E-05
2872	2.23E-05
2871	2.23E-05
2870	2.23E-05
2869	2.23E-05
2868	2.24E-05
2867	2.24E-05
2866	2.24E-05
2865	2.25E-05
2864	2.25E-05
2863	2.25E-05
2862	2.25E-05
2861	2.26E-05
2860	2.26E-05
2859	2.26E-05
2858	2.26E-05
2857	2.27E-05
2856	2.27E-05
2855	2.27E-05
2854	2.27E-05
2853	2.28E-05
2852	2.28E-05
2851	2.28E-05
2850	2.29E-05
2849	2.29E-05
2848	2.29E-05
2847	2.29E-05
2846	2.30E-05
2845	2.30E-05
2844	2.30E-05
2843	2.31E-05
2842	2.31E-05
2841	2.31E-05
2840	2.31E-05
2839	2.32E-05
2838	2.32E-05
2837	2.32E-05
2836	2.33E-05
2835	2.33E-05
2834	2.33E-05
2833	2.33E-05
2832	2.34E-05
2831	2.34E-05
2830	2.34E-05
2829	2.35E-05
2828	2.35E-05
2827	2.35E-05
2826	2.36E-05
2825	2.36E-05
2824	2.36E-05
2823	2.36E-05
2822	2.37E-05
2821	2.37E-05
2820	2.37E-05
2819	2.38E-05
2818	2.38E-05
2817	2.38E-05
2816	2.39E-05
2815	2.39E-05
2814	2.39E-05
2813	2.40E-05
2812	2.40E-05
2811	2.40E-05
2810	2.41E-05
2809	2.41E-05
2808	2.41E-05
2807	2.42E-05
2806	2.42E-05
2805	2.42E-05
2804	2.42E-05
2803	2.43E-05
2802	2.43E-05
2801	2.43E-05
2800	2.44E-05
2799	2.44E-05
2798	2.44E-05
2797	2.45E-05
2796	2.45E-05
2795	2.45E-05
2794	2.46E-05
2793	2.46E-05
2792	2.46E-05
2791	2.47E-05
2790	2.47E-05
2789	2.47E-05
2788	2.48E-05
2787	2.48E-05
2786	2.49E-05
2785	2.49E-05
2784	2.49E-05
2783	2.50E-05
2782	2.50E-05
2781	2.50E-05
2780	2.51E-05
2779	2.51E-05
2778	2.51E-05
2777	2.52E-05
2776	2.52E-05
2775	2.52E-05
2774	2.53E-05
2773	2.53E-05
2772	2.53E-05
2771	2.54E-05
2770	2.54E-05
2769	2.54E-05
2768	2.55E-05
2767	2.55E-05
2766	2.56E-05
2765	2.56E-05
2764	2.56E-05
2763	2.57E-05
2762	2.57E-05
2761	2.57E-05
2760	2.58E-05
2759	2.58E-05
2758	2.58E-05
2757	2.59E-05
2756	2.59E-05
2755	2.60E-05
2754	2.60E-05
2753	2.60E-05
2752	2.61E-05
2751	2.61E-05
2750	2.61E-05
2749	2.62E-05
2748	2.62E-05
2747	2.63E-05
2746	2.63E-05
2745	2.63E-05
2744	2.64E-05
2743	2.64E-05
2742	2.65E-05
2741	2.65E-05
2740	2.65E-05
2739	2.66E-05
2738	2.66E-05
2737	2.67E-05
2736	2.67E-05
2735	2.67E-05
2734	2.68E-05
2733	2.68E-05
2732	2.68E-05
2731	2.69E-05
2730	2.69E-05
2729	2.70E-05
2728	2.70E-05
2727	2.70E-05
2726	2.71E-05
2725	2.71E-05
2724	2.72E-05
2723	2.72E-05
2722	2.73E-05
2721	2.73E-05
2720	2.73E-05
2719	2.74E-05
2718	2.74E-05
2717	2.75E-05
2716	2.75E-05
2715	2.75E-05
2714	2.76E-05
2713	2.76E-05
2712	2.77E-05
2711	2.77E-05
2710	2.78E-05
2709	2.78E-05
2708	2.78E-05
2707	2.79E-05
2706	2.79E-05
2705	2.80E-05
2704	2.80E-05
2703	2.80E-05
2702	2.81E-05
2701	2.81E-05
2700	2.82E-05
2699	2.82E-05
2698	2.83E-05
2697	2.83E-05
2696	2.84E-05
2695	2.84E-05
2694	2.84E-05
2693	2.85E-05
2692	2.85E-05
2691	2.86E-05
2690	2.86E-05
2689	2.87E-05
2688	2.87E-05
2687	2.88E-05
2686	2.88E-05
2685	2.88E-05
2684	2.89E-05
2683	2.89E-05
2682	2.90E-05
2681	2.90E-05
2680	2.91E-05
2679	2.91E-05
2678	2.92E-05
2677	2.92E-05
2676	2.93E-05
2675	2.93E-05
2674	2.93E-05
2673	2.94E-05
2672	2.94E-05
2671	2.95E-05
2670	2.95E-05
2669	2.96E-05
2668	2.96E-05
2667	2.97E-05
2666	2.97E-05
2665	2.98E-05
2664	2.98E-05
2663	2.99E-05
2662	2.99E-05
2661	3.00E-05
2660	3.00E-05
2659	3.01E-05
2658	3.01E-05
2657	3.01E-05
2656	3.02E-05
2655	3.02E-05
2654	3.03E-05
2653	3.03E-05
2652	3.04E-05
2651	3.04E-05
2650	3.05E-05
2649	3.05E-05
2648	3.06E-05
2647	3.06E-05
2646	3.07E-05
2645	3.07E-05
2644	3.08E-05
2643	3.08E-05
2642	3.09E-05
2641	3.09E-05
2640	3.10E-05
2639	3.10E-05
2638	3.11E-05
2637	3.11E-05
2636	3.12E-05
2635	3.12E-05
2634	3.13E-05
2633	3.14E-05
2632	3.14E-05
2631	3.15E-05
2630	3.15E-05
2629	3.16E-05
2628	3.16E-05
2627	3.17E-05
2626	3.17E-05
2625	3.18E-05
2624	3.18E-05
2623	3.19E-05
2622	3.19E-05
2621	3.20E-05
2620	3.20E-05
2619	3.21E-05
2618	3.21E-05
2617	3.22E-05
2616	3.23E-05
2615	3.23E-05
2614	3.24E-05
2613	3.24E-05
2612	3.25E-05
2611	3.25E-05
2610	3.26E-05
2609	3.26E-05
2608	3.27E-05
2607	3.27E-05
2606	3.28E-05
2605	3.29E-05
2604	3.29E-05
2603	3.30E-05
2602	3.30E-05
2601	3.31E-05
2600	3.31E-05
2599	3.32E-05
2598	3.32E-05
2597	3.33E-05
2596	3.34E-05
2595	3.34E-05
2594	3.35E-05
2593	3.35E-05
2592	3.36E-05
2591	3.37E-05
2590	3.37E-05
2589	3.38E-05
2588	3.38E-05
2587	3.39E-05
2586	3.39E-05
2585	3.40E-05
2584	3.41E-05
2583	3.41E-05
2582	3.42E-05
2581	3.42E-05
2580	3.43E-05
2579	3.44E-05
2578	3.44E-05
2577	3.45E-05
2576	3.45E-05
2575	3.46E-05
2574	3.47E-05
2573	3.47E-05
2572	3.48E-05
2571	3.48E-05
2570	3.49E-05
2569	3.50E-05
2568	3.50E-05
2567	3.51E-05
2566	3.51E-05
2565	3.52E-05
2564	3.53E-05
2563	3.53E-05
2562	3.54E-05
2561	3.55E-05
2560	3.55E-05
2559	3.56E-05
2558	3.57E-05
2557	3.57E-05
2556	3.58E-05
2555	3.58E-05
2554	3.59E-05
2553	3.60E-05
2552	3.60E-05
2551	3.61E-05
2550	3.62E-05
2549	3.62E-05
2548	3.63E-05
2547	3.64E-05
2546	3.64E-05
2545	3.65E-05
2544	3.66E-05
2543	3.66E-05
2542	3.67E-05
2541	3.68E-05
2540	3.68E-05
2539	3.69E-05
2538	3.70E-05
2537	3.70E-05
2536	3.71E-05
2535	3.72E-05
2534	3.72E-05
2533	3.73E-05
2532	3.74E-05
2531	3.74E-05
2530	3.75E-05
2529	3.76E-05
2528	3.76E-05
2527	3.77E-05
2526	3.78E-05
2525	3.78E-05
2524	3.79E-05
2523	3.80E-05
2522	3.81E-05
2521	3.81E-05
2520	3.82E-05
2519	3.83E-05
2518	3.83E-05
2517	3.84E-05
2516	3.85E-05
2515	3.86E-05
2514	3.86E-05
2513	3.87E-05
2512	3.88E-05
2511	3.88E-05
2510	3.89E-05
2509	3.90E-05
2508	3.91E-05
2507	3.91E-05
2506	3.92E-05
2505	3.93E-05
2504	3.94E-05
2503	3.94E-05
2502	3.95E-05
2501	3.96E-05
2500	3.97E-05
2499	3.97E-05
2498	3.98E-05
2497	3.99E-05
2496	4.00E-05
2495	4.00E-05
2494	4.01E-05
2493	4.02E-05
2492	4.03E-05
2491	4.03E-05
2490	4.04E-05
2489	4.05E-05
2488	4.06E-05
2487	4.07E-05
2486	4.07E-05
2485	4.08E-05
2484	4.09E-05
2483	4.10E-05
2482	4.10E-05
2481	4.11E-05
2480	4.12E-05
2479	4.13E-05
2478	4.14E-05
2477	4.14E-05
2476	4.15E-05
2475	4.16E-05
2474	4.17E-05
2473	4.18E-05
2472	4.19E-05
2471	4.19E-05
2470	4.20E-05
2469	4.21E-05
2468	4.22E-05
2467	4.23E-05
2466	4.23E-05
2465	4.24E-05
2464	4.25E-05
2463	4.26E-05
2462	4.27E-05
2461	4.28E-05
2460	4.29E-05
2459	4.29E-05
2458	4.30E-05
2457	4.31E-05
2456	4.32E-05
2455	4.33E-05
2454	4.34E-05
2453	4.34E-05
2452	4.35E-05
2451	4.36E-05
2450	4.37E-05
2449	4.38E-05
2448	4.39E-05
2447	4.40E-05
2446	4.41E-05
2445	4.42E-05
2444	4.42E-05
2443	4.43E-05
2442	4.44E-05
2441	4.45E-05
2440	4.46E-05
2439	4.47E-05
2438	4.48E-05
2437	4.49E-05
2436	4.50E-05
2435	4.51E-05
2434	4.51E-05
2433	4.52E-05
2432	4.53E-05
2431	4.54E-05
2430	4.55E-05
2429	4.56E-05
2428	4.57E-05
2427	4.58E-05
2426	4.59E-05
2425	4.60E-05
2424	4.61E-05
2423	4.62E-05
2422	4.63E-05
2421	4.64E-05
2420	4.65E-05
2419	4.66E-05
2418	4.67E-05
2417	4.68E-05
2416	4.68E-05
2415	4.69E-05
2414	4.70E-05
2413	4.71E-05
2412	4.72E-05
2411	4.73E-05
2410	4.74E-05
2409	4.75E-05
2408	4.76E-05
2407	4.77E-05
2406	4.78E-05
2405	4.79E-05
2404	4.80E-05
2403	4.81E-05
2402	4.82E-05
2401	4.83E-05
2400	4.84E-05
2399	4.86E-05
2398	4.87E-05
2397	4.88E-05
2396	4.89E-05
2395	4.90E-05
2394	4.91E-05
2393	4.92E-05
2392	4.93E-05
2391	4.94E-05
2390	4.95E-05
2389	4.96E-05
2388	4.97E-05
2387	4.98E-05
2386	4.99E-05
2385	5.00E-05
2384	5.01E-05
2383	5.02E-05
2382	5.04E-05
2381	5.05E-05
2380	5.06E-05
2379	5.07E-05
2378	5.08E-05
2377	5.09E-05
2376	5.10E-05
2375	5.11E-05
2374	5.12E-05
2373	5.13E-05
2372	5.15E-05
2371	5.16E-05
2370	5.17E-05
2369	5.18E-05
2368	5.19E-05
2367	5.20E-05
2366	5.21E-05
2365	5.23E-05
2364	5.24E-05
2363	5.25E-05
2362	5.26E-05
2361	5.27E-05
2360	5.28E-05
2359	5.30E-05
2358	5.31E-05
2357	5.32E-05
2356	5.33E-05
2355	5.34E-05
2354	5.36E-05
2353	5.37E-05
2352	5.38E-05
2351	5.39E-05
2350	5.40E-05
2349	5.42E-05
2348	5.43E-05
2347	5.44E-05
2346	5.45E-05
2345	5.47E-05
2344	5.48E-05
2343	5.49E-05
2342	5.50E-05
2341	5.51E-05
2340	5.53E-05
2339	5.54E-05
2338	5.55E-05
2337	5.57E-05
2336	5.58E-05
2335	5.59E-05
2334	5.60E-05
2333	5.62E-05
2332	5.63E-05
2331	5.64E-05
2330	5.66E-05
2329	5.67E-05
2328	5.68E-05
2327	5.70E-05
2326	5.71E-05
2325	5.72E-05
2324	5.73E-05
2323	5.75E-05
2322	5.76E-05
2321	5.78E-05
2320	5.79E-05
2319	5.80E-05
2318	5.82E-05
2317	5.83E-05
2316	5.84E-05
2315	5.86E-05
2314	5.87E-05
2313	5.88E-05
2312	5.90E-05
2311	5.91E-05
2310	5.93E-05
2309	5.94E-05
2308	5.95E-05
2307	5.97E-05
2306	5.98E-05
2305	6.00E-05
2304	6.01E-05
2303	6.03E-05
2302	6.04E-05
2301	6.06E-05
2300	6.07E-05
2299	6.08E-05
2298	6.10E-05
2297	6.11E-05
2296	6.13E-05
2295	6.14E-05
2294	6.16E-05
2293	6.17E-05
2292	6.19E-05
2291	6.20E-05
2290	6.22E-05
2289	6.23E-05
2288	6.25E-05
2287	6.26E-05
2286	6.28E-05
2285	6.29E-05
2284	6.31E-05
2283	6.33E-05
2282	6.34E-05
2281	6.36E-05
2280	6.37E-05
2279	6.39E-05
2278	6.40E-05
2277	6.42E-05
2276	6.44E-05
2275	6.45E-05
2274	6.47E-05
2273	6.48E-05
2272	6.50E-05
2271	6.52E-05
2270	6.53E-05
2269	6.55E-05
2268	6.57E-05
2267	6.58E-05
2266	6.60E-05
2265	6.62E-05
2264	6.63E-05
2263	6.65E-05
2262	6.67E-05
2261	6.68E-05
2260	6.70E-05
2259	6.72E-05
2258	6.73E-05
2257	6.75E-05
2256	6.77E-05
2255	6.79E-05
2254	6.80E-05
2253	6.82E-05
2252	6.84E-05
2251	6.86E-05
2250	6.87E-05
2249	6.89E-05
2248	6.91E-05
2247	6.93E-05
2246	6.94E-05
2245	6.96E-05
2244	6.98E-05
2243	7.00E-05
2242	7.02E-05
2241	7.04E-05
2240	7.05E-05
2239	7.07E-05
2238	7.09E-05
2237	7.11E-05
2236	7.13E-05
2235	7.15E-05
2234	7.17E-05
2233	7.18E-05
2232	7.20E-05
2231	7.22E-05
2230	7.24E-05
2229	7.26E-05
2228	7.28E-05
2227	7.30E-05
2226	7.32E-05
2225	7.34E-05
2224	7.36E-05
2223	7.38E-05
2222	7.40E-05
2221	7.42E-05
2220	7.44E-05
2219	7.46E-05
2218	7.48E-05
2217	7.50E-05
2216	7.52E-05
2215	7.54E-05
2214	7.56E-05
2213	7.58E-05
2212	7.60E-05
2211	7.62E-05
2210	7.64E-05
2209	7.66E-05
2208	7.68E-05
2207	7.71E-05
2206	7.73E-05
2205	7.75E-05
2204	7.77E-05
2203	7.79E-05
2202	7.81E-05
2201	7.83E-05
2200	7.86E-05
2199	7.88E-05
2198	7.90E-05
2197	7.92E-05
2196	7.94E-05
2195	7.97E-05
2194	7.99E-05
2193	8.01E-05
2192	8.03E-05
2191	8.06E-05
2190	8.08E-05
2189	8.10E-05
2188	8.12E-05
2187	8.15E-05
2186	8.17E-05
2185	8.19E-05
2184	8.22E-05
2183	8.24E-05
2182	8.26E-05
2181	8.29E-05
2180	8.31E-05
2179	8.34E-05
2178	8.36E-05
2177	8.38E-05
2176	8.41E-05
2175	8.43E-05
2174	8.46E-05
2173	8.48E-05
2172	8.51E-05
2171	8.53E-05
2170	8.56E-05
2169	8.58E-05
2168	8.61E-05
2167	8.63E-05
2166	8.66E-05
2165	8.68E-05
2164	8.71E-05
2163	8.73E-05
2162	8.76E-05
2161	8.78E-05
2160	8.81E-05
2159	8.84E-05
2158	8.86E-05
2157	8.89E-05
2156	8.92E-05
2155	8.94E-05
2154	8.97E-05
2153	9.00E-05
2152	9.02E-05
2151	9.05E-05
2150	9.08E-05
2149	9.11E-05
2148	9.13E-05
2147	9.16E-05
2146	9.19E-05
2145	9.22E-05
2144	9.24E-05
2143	9.27E-05
2142	9.30E-05
2141	9.33E-05
2140	9.36E-05
2139	9.39E-05
2138	9.42E-05
2137	9.44E-05
2136	9.47E-05
2135	9.50E-05
2134	9.53E-05
2133	9.56E-05
2132	9.59E-05
2131	9.62E-05
2130	9.65E-05
2129	9.68E-05
2128	9.71E-05
2127	9.74E-05
2126	9.77E-05
2125	9.80E-05
2124	9.84E-05
2123	9.87E-05
2122	9.90E-05
2121	9.93E-05
2120	9.96E-05
2119	9.99E-05
2118	0.000100248
2117	0.000100569
2116	0.000100891
2115	0.000101215
2114	0.00010154
2113	0.000101867
2112	0.000102196
2111	0.000102527
2110	0.000102859
2109	0.000103193
2108	0.000103528
2107	0.000103866
2106	0.000104205
2105	0.000104546
2104	0.000104888
2103	0.000105233
2102	0.000105579
2101	0.000105927
2100	0.000106276
2099	0.000106628
2098	0.000106981
2097	0.000107337
2096	0.000107694
2095	0.000108053
2094	0.000108414
2093	0.000108777
2092	0.000109141
2091	0.000109508
2090	0.000109877
2089	0.000110247
2088	0.00011062
2087	0.000110994
2086	0.000111371
2085	0.000111749
2084	0.00011213
2083	0.000112513
2082	0.000112898
2081	0.000113284
2080	0.000113673
2079	0.000114064
2078	0.000114458
2077	0.000114853
2076	0.00011525
2075	0.00011565
2074	0.000116052
2073	0.000116456
2072	0.000116862
2071	0.000117271
2070	0.000117682
2069	0.000118095
2068	0.00011851
2067	0.000118928
2066	0.000119348
2065	0.000119771
2064	0.000120196
2063	0.000120623
2062	0.000121052
2061	0.000121484
2060	0.000121919
2059	0.000122356
2058	0.000122795
2057	0.000123237
2056	0.000123682
2055	0.000124129
2054	0.000124579
2053	0.000125031
2052	0.000125486
2051	0.000125943
2050	0.000126403
2049	0.000126866
2048	0.000127331
2047	0.0001278
2046	0.000128271
2045	0.000128744
2044	0.000129221
2043	0.0001297
2042	0.000130182
2041	0.000130667
2040	0.000131155
2039	0.000131646
2038	0.000132139
2037	0.000132636
2036	0.000133136
2035	0.000133638
2034	0.000134144
2033	0.000134653
2032	0.000135164
2031	0.000135679
2030	0.000136197
2029	0.000136718
2028	0.000137243
2027	0.00013777
2026	0.000138301
2025	0.000138835
2024	0.000139373
2023	0.000139913
2022	0.000140457
2021	0.000141005
2020	0.000141555
2019	0.00014211
2018	0.000142667
2017	0.000143229
2016	0.000143793
2015	0.000144362
2014	0.000144934
2013	0.000145509
2012	0.000146088
2011	0.000146671
2010	0.000147258
2009	0.000147848
2008	0.000148442
2007	0.00014904
2006	0.000149642
2005	0.000150248
2004	0.000150857
2003	0.000151471
2002	0.000152088
2001	0.00015271
2000	0.000153336
1999	0.000153966
1998	0.0001546
1997	0.000155238
1996	0.00015588
1995	0.000156527
1994	0.000157178
1993	0.000157833
1992	0.000158493
1991	0.000159157
1990	0.000159825
1989	0.000160499
1988	0.000161176
1987	0.000161858
1986	0.000162545
1985	0.000163237
1984	0.000163933
1983	0.000164634
1982	0.00016534
1981	0.000166051
1980	0.000166767
1979	0.000167487
1978	0.000168213
1977	0.000168944
1976	0.00016968
1975	0.000170421
1974	0.000171167
1973	0.000171918
1972	0.000172675
1971	0.000173437
1970	0.000174205
1969	0.000174978
1968	0.000175756
1967	0.000176541
1966	0.000177331
1965	0.000178126
1964	0.000178927
1963	0.000179734
1962	0.000180547
1961	0.000181366
1960	0.000182191
1959	0.000183022
1958	0.000183859
1957	0.000184703
1956	0.000185552
1955	0.000186408
1954	0.000187271
1953	0.000188139
1952	0.000189015
1951	0.000189896
1950	0.000190785
1949	0.00019168
1948	0.000192582
1947	0.000193491
1946	0.000194407
1945	0.00019533
1944	0.00019626
1943	0.000197197
1942	0.000198141
1941	0.000199093
1940	0.000200052
1939	0.000201019
1938	0.000201993
1937	0.000202975
1936	0.000203965
1935	0.000204963
1934	0.000205968
1933	0.000206982
1932	0.000208003
1931	0.000209033
1930	0.000210071
1929	0.000211117
1928	0.000212172
1927	0.000213236
1926	0.000214308
1925	0.000215389
1924	0.000216479
1923	0.000217578
1922	0.000218686
1921	0.000219803
1920	0.000220929
1919	0.000222065
1918	0.00022321
1917	0.000224365
1916	0.00022553
1915	0.000226705
1914	0.000227889
1913	0.000229084
1912	0.000230289
1911	0.000231504
1910	0.00023273
1909	0.000233966
1908	0.000235213
1907	0.000236471
1906	0.00023774
1905	0.000239021
1904	0.000240312
1903	0.000241615
1902	0.000242929
1901	0.000244255
1900	0.000245593
1899	0.000246943
1898	0.000248306
1897	0.00024968
1896	0.000251067
1895	0.000252467
1894	0.000253879
1893	0.000255304
1892	0.000256743
1891	0.000258195
1890	0.00025966
1889	0.000261139
1888	0.000262632
1887	0.000264139
1886	0.00026566
1885	0.000267195
1884	0.000268745
1883	0.00027031
1882	0.00027189
1881	0.000273485
1880	0.000275096
1879	0.000276722
1878	0.000278364
1877	0.000280022
1876	0.000281696
1875	0.000283387
1874	0.000285095
1873	0.000286819
1872	0.000288561
1871	0.00029032
1870	0.000292097
1869	0.000293892
1868	0.000295706
1867	0.000297537
1866	0.000299388
1865	0.000301257
1864	0.000303146
1863	0.000305054
1862	0.000306983
1861	0.000308931
1860	0.0003109
1859	0.00031289
1858	0.000314901
1857	0.000316933
1856	0.000318987
1855	0.000321063
1854	0.000323162
1853	0.000325283
1852	0.000327428
1851	0.000329596
1850	0.000331788
1849	0.000334004
1848	0.000336244
1847	0.00033851
1846	0.000340801
1845	0.000343118
1844	0.000345461
1843	0.000347831
1842	0.000350228
1841	0.000352652
1840	0.000355104
1839	0.000357585
1838	0.000360094
1837	0.000362633
1836	0.000365202
1835	0.000367801
1834	0.000370431
1833	0.000373093
1832	0.000375786
1831	0.000378512
1830	0.000381271
1829	0.000384064
